ans.dynamics.rms.Mean,ans.dynamics.rms.Std,fluctuation.peak.PeakPosMean,fluctuation.peak.PeakMagMean,fluctuation.centroid.Mean,rhythm.tmp.onsets.PeakPosMean,rhythm.tmp.onsets.PeakMagMean,rhythm.tempo.Mean,rhythm.attack.time.Mean,rhythm.attack.slope.Mean,spectral.centroid.Mean,spectral.centroid.Std,spectral.brightness.Mean,spectral.brightness.Std,spectral.spread.Mean,spectral.spread.Std,spectral.skewness.Mean,spectral.skewness.Std,spectral.kurtosis.Mean,spectral.kurtosis.Std,spectral.rolloff95.Mean,spectral.rolloff95.Std,spectral.rolloff85.Mean,spectral.rolloff85.Std,spectral.spectentropy.Mean,spectral.spectentropy.Std,spectral.flatness.Mean,spectral.flatness.Std,spectral.roughness.Mean,spectral.roughness.Std,spectral.irregularity.Mean,spectral.irregularity.Std,spectral.mfcc.1.Mean,spectral.mfcc.1.Std,spectral.mfcc.2.Mean,spectral.mfcc.2.Std,spectral.mfcc.3.Mean,spectral.mfcc.3.Std,spectral.mfcc.4.Mean,spectral.mfcc.4.Std,spectral.mfcc.5.Mean,spectral.mfcc.5.Std,spectral.mfcc.6.Mean,spectral.mfcc.6.Std,spectral.mfcc.7.Mean,spectral.mfcc.7.Std,spectral.mfcc.8.Mean,spectral.mfcc.8.Std,spectral.mfcc.9.Mean,spectral.mfcc.9.Std,spectral.mfcc.10.Mean,spectral.mfcc.10.Std,spectral.mfcc.11.Mean,spectral.mfcc.11.Std,spectral.mfcc.12.Mean,spectral.mfcc.12.Std,spectral.mfcc.13.Mean,spectral.mfcc.13.Std,spectral.dmfcc.1.Mean,spectral.dmfcc.1.Std,spectral.dmfcc.2.Mean,spectral.dmfcc.2.Std,spectral.dmfcc.3.Mean,spectral.dmfcc.3.Std,spectral.dmfcc.4.Mean,spectral.dmfcc.4.Std,spectral.dmfcc.5.Mean,spectral.dmfcc.5.Std,spectral.dmfcc.6.Mean,spectral.dmfcc.6.Std,spectral.dmfcc.7.Mean,spectral.dmfcc.7.Std,spectral.dmfcc.8.Mean,spectral.dmfcc.8.Std,spectral.dmfcc.9.Mean,spectral.dmfcc.9.Std,spectral.dmfcc.10.Mean,spectral.dmfcc.10.Std,spectral.dmfcc.11.Mean,spectral.dmfcc.11.Std,spectral.dmfcc.12.Mean,spectral.dmfcc.12.Std,spectral.dmfcc.13.Mean,spectral.dmfcc.13.Std,spectral.ddmfcc.1.Mean,spectral.ddmfcc.2.Mean,spectral.ddmfcc.3.Mean,spectral.ddmfcc.4.Mean,spectral.ddmfcc.5.Mean,spectral.ddmfcc.6.Mean,spectral.ddmfcc.7.Mean,spectral.ddmfcc.8.Mean,spectral.ddmfcc.9.Mean,spectral.ddmfcc.10.Mean,spectral.ddmfcc.11.Mean,spectral.ddmfcc.12.Mean,spectral.ddmfcc.13.Mean,timbre.zerocross.Mean,timbre.zerocross.Std,timbre.lowenergy.Mean,timbre.spectralflux.Mean,timbre.spectralflux.Std,class
0.89876,0.43892,3.97286,179.46752,4.54165,0.4474,0.37173,62.27696,0.16764,5.89546,10.77318,1.90417,0,0,12.48589,0.96982,1.04772,0.08234,3.67395,0.32623,31.7987,2.87859,17.76756,5.37915,0.65923,0.03075,0.26906,0.101,0,0,0,0,-0,0,0,0,-0,0,-0,0,-0,0,0,0,0,0,0,0,-0,0,-0,0,-0,0,-0,0,-0,0,0,0,0,0,0,0,0,0,0,0,0,0,0,0,0,0,0,0,0,0,0,0,0,0,0,0,0,0,0,0,0,0,0,0,0,0,0,0,0,0.83472,2.83049,0.51252,0.46649,0.5678,class1
0.88177,0.4749,3.73921,119.0474,4.37168,0.10068,0.87659,57.91466,0.13357,4.67782,10.75813,1.95386,0,0,12.47383,0.92142,1.05085,0.0818,3.69287,0.31528,31.74562,2.74061,17.5553,5.14578,0.65855,0.02897,0.27182,0.09775,0,0,0,0,-0,0,0,0,-0,0,-0,0,-0,0,0,0,0,0,0,0,-0,0,-0,0,-0,0,-0,0,-0,0,0,0,0,0,0,0,0,0,0,0,0,0,0,0,0,0,0,0,0,0,0,0,0,0,0,0,0,0,0,0,0,0,0,0,0,0,0,0,0,0.73038,2.66205,0.52087,0.467,0.57045,class1
0.82736,0.56345,2.8886,177.05991,4.22498,0.34415,0.09782,57.70211,0.23257,2.8106,10.7713,1.96734,0,0,12.4531,0.8487,1.05986,0.08128,3.71868,0.35115,31.7717,2.80938,17.47705,5.05478,0.65855,0.0281,0.26633,0.09448,0,0,0,0,-0,0,0,0,-0,0,-0,0,-0,0,0,0,0,0,0,0,-0,0,-0,0,-0,0,-0,0,-0,0,0,0,0,0,0,0,0,0,0,0,0,0,0,0,0,0,0,0,0,0,0,0,0,0,0,0,0,0,0,0,0,0,0,0,0,0,0,0,0,0.76516,2.7198,0.62437,0.4298,0.49977,class1
0.81821,0.57353,4.86968,217.91924,4.66861,0.09007,0.05931,98.42314,0.09322,4.66798,11.19727,2.19817,0,0,12.85561,1.05963,1.09172,0.09792,3.89311,0.36405,32.11081,3.56797,19.12041,6.51681,0.66834,0.03525,0.31892,0.09974,0,0,0,0,-0,0,0,0,-0,0,-0,0,-0,0,0,0,0,0,0,0,-0,0,-0,0,-0,0,-0,0,-0,0,0,0,0,0,0,0,0,0,0,0,0,0,0,0,0,0,0,0,0,0,0,0,0,0,0,0,0,0,0,0,0,0,0,0,0,0,0,0,0,1.4086,3.5651,0.58097,0.72608,0.68112,class1
0.86726,0.4979,4.88982,269.7354,4.65953,0.22675,1.0005,99.47184,0.11533,4.10132,11.23389,2.36211,0,0,12.84156,1.11975,1.07393,0.10008,3.82406,0.34026,32.18907,3.71673,19.14649,6.53404,0.66861,0.0365,0.31655,0.10515,0,0,0,0,-0,0,0,0,-0,0,-0,0,-0,0,0,0,0,0,0,0,-0,0,-0,0,-0,0,-0,0,-0,0,0,0,0,0,0,0,0,0,0,0,0,0,0,0,0,0,0,0,0,0,0,0,0,0,0,0,0,0,0,0,0,0,0,0,0,0,0,0,0,1.32165,3.46994,0.52588,0.74569,0.67067,class1
0.85381,0.52094,4.83297,233.21963,4.53999,0.42673,0.10918,96.08987,0.10826,2.24769,11.11101,2.24771,0,0,12.73822,1.06386,1.07198,0.09642,3.80448,0.35274,32.18907,3.71673,18.75522,6.25914,0.66625,0.03582,0.30526,0.10132,0,0,0,0,-0,0,0,0,-0,0,-0,0,-0,0,0,0,0,0,0,0,-0,0,-0,0,-0,0,-0,0,-0,0,0,0,0,0,0,0,0,0,0,0,0,0,0,0,0,0,0,0,0,0,0,0,0,0,0,0,0,0,0,0,0,0,0,0,0,0,0,0,0,1.16514,3.28593,0.56093,0.6641,0.63318,class1
0.83464,0.55212,4.86378,240.14766,4.5733,0.34471,0.13047,98.89353,0.10743,2.20999,11.18235,2.35537,0,0,12.76996,1.08007,1.07296,0.10038,3.81657,0.35099,32.2969,3.90992,19.02743,6.45416,0.66754,0.03715,0.31,0.10309,0,0,0,0,-0,0,0,0,-0,0,-0,0,-0,0,0,0,0,0,0,0,-0,0,-0,0,-0,0,-0,0,-0,0,0,0,0,0,0,0,0,0,0,0,0,0,0,0,0,0,0,0,0,0,0,0,0,0,0,0,0,0,0,0,0,0,0,0,0,0,0,0,0,1.21731,3.3492,0.56093,0.6601,0.59711,class1
0.84976,0.53002,4.8559,236.56089,4.6721,0.14429,0.08627,98.351,0.10583,5.36626,11.2074,2.26716,0,0,12.84548,1.09228,1.08317,0.10049,3.8588,0.36119,32.18907,3.71673,18.98998,6.42835,0.66845,0.03602,0.3173,0.10234,0,0,0,0,-0,0,0,0,-0,0,-0,0,-0,0,0,0,0,0,0,0,-0,0,-0,0,-0,0,-0,0,-0,0,0,0,0,0,0,0,0,0,0,0,0,0,0,0,0,0,0,0,0,0,0,0,0,0,0,0,0,0,0,0,0,0,0,0,0,0,0,0,0,1.33904,3.48936,0.55593,0.73632,0.65908,class1
0.88179,0.4706,4.81181,242.77089,4.55875,0.14124,0.60003,95.91259,0.1165,4.03691,11.12321,2.08651,0,0,12.80509,1.12988,1.06983,0.09435,3.7962,0.33937,32.08612,3.51937,19.02174,6.45025,0.66778,0.03633,0.30992,0.10604,0,0,0,0,-0,0,0,0,-0,0,-0,0,-0,0,0,0,0,0,0,0,-0,0,-0,0,-0,0,-0,0,-0,0,0,0,0,0,0,0,0,0,0,0,0,0,0,0,0,0,0,0,0,0,0,0,0,0,0,0,0,0,0,0,0,0,0,0,0,0,0,0,0,1.35643,3.50858,0.52254,0.70895,0.64111,class1
0.87779,0.47744,4.79715,238.3538,4.59456,0.09196,0.27118,95.46431,0.10629,5.98256,11.17567,2.27738,0,0,12.80257,1.14004,1.06587,0.09553,3.78879,0.31952,32.29341,3.90384,19.17258,6.55113,0.6681,0.03761,0.31249,0.10576,0,0,0,0,-0,0,0,0,-0,0,-0,0,-0,0,0,0,0,0,0,0,-0,0,-0,0,-0,0,-0,0,-0,0,0,0,0,0,0,0,0,0,0,0,0,0,0,0,0,0,0,0,0,0,0,0,0,0,0,0,0,0,0,0,0,0,0,0,0,0,0,0,0,1.30426,3.45033,0.52421,0.7389,0.68121,class1
0.81907,0.57267,4.8157,251.39307,4.76773,0.50153,0.26464,95.33845,0.10094,4.5953,11.26997,2.41096,0,0,12.84909,1.05745,1.0891,0.10573,3.89108,0.3691,32.24124,3.81179,19.04215,6.4642,0.66895,0.03726,0.32019,0.10046,0,0,0,0,-0,0,0,0,-0,0,-0,0,-0,0,0,0,0,0,0,0,-0,0,-0,0,-0,0,-0,0,-0,0,0,0,0,0,0,0,0,0,0,0,0,0,0,0,0,0,0,0,0,0,0,0,0,0,0,0,0,0,0,0,0,0,0,0,0,0,0,0,0,1.30426,3.45033,0.57429,0.75122,0.68521,class1
0.8579,0.51138,4.84363,226.53931,4.53433,0.44498,0.08434,97.92836,0.10317,5.38649,11.16694,2.19447,0,0,12.82994,1.11181,1.07696,0.09723,3.83562,0.33699,32.19064,3.71965,18.86497,6.3399,0.66814,0.03672,0.317,0.10228,0,0,0,0,-0,0,0,0,-0,0,-0,0,-0,0,0,0,0,0,0,0,-0,0,-0,0,-0,0,-0,0,-0,0,0,0,0,0,0,0,0,0,0,0,0,0,0,0,0,0,0,0,0,0,0,0,0,0,0,0,0,0,0,0,0,0,0,0,0,0,0,0,0,1.28687,3.43052,0.54758,0.73749,0.64435,class1
0.83414,0.552,4.82659,199.65718,4.63956,0.31432,0.20287,96.57691,0.10179,4.4814,11.20344,2.30272,0,0,12.81907,1.06756,1.08538,0.09722,3.86704,0.36492,32.26732,3.85818,19.04215,6.4642,0.66789,0.03585,0.31588,0.09931,0,0,0,0,-0,0,0,0,-0,0,-0,0,-0,0,0,0,0,0,0,0,-0,0,-0,0,-0,0,-0,0,-0,0,0,0,0,0,0,0,0,0,0,0,0,0,0,0,0,0,0,0,0,0,0,0,0,0,0,0,0,0,0,0,0,0,0,0,0,0,0,0,0,1.39121,3.54645,0.5626,0.7211,0.64645,class1
0.83663,0.54942,3.82581,157.98181,4.0975,0.3096,0.69736,55.35723,0.19556,4.75498,10.78493,1.97996,0,0,12.49218,0.96817,1.04979,0.09623,3.68987,0.37478,31.92821,3.18654,17.60747,5.20492,0.65921,0.03181,0.26269,0.11279,0,0,0,0,-0,0,0,0,-0,0,-0,0,-0,0,0,0,0,0,0,0,-0,0,-0,0,-0,0,-0,0,-0,0,0,0,0,0,0,0,0,0,0,0,0,0,0,0,0,0,0,0,0,0,0,0,0,0,0,0,0,0,0,0,0,0,0,0,0,0,0,0,0,0.74777,2.69114,0.66444,0.43315,0.53088,class1
0.86377,0.50534,4.75982,277.78412,4.72373,0.26413,0.24828,94.28277,0.10667,4.6843,11.22463,2.39812,0,0,12.79645,1.10348,1.07225,0.10449,3.81507,0.36091,32.34925,3.99927,19.15829,6.54181,0.66831,0.03809,0.31142,0.10594,0,0,0,0,-0,0,0,0,-0,0,-0,0,-0,0,0,0,0,0,0,0,-0,0,-0,0,-0,0,-0,0,-0,0,0,0,0,0,0,0,0,0,0,0,0,0,0,0,0,0,0,0,0,0,0,0,0,0,0,0,0,0,0,0,0,0,0,0,0,0,0,0,0,1.21731,3.40295,0.53589,0.72168,0.65998,class1
0.78175,0.62396,4.84461,207.29117,4.59242,0.40636,0.0685,94.88838,0.10904,1.49211,11.06075,2.01087,0,0,12.76543,1.03353,1.08295,0.10324,3.8479,0.38974,32.01284,3.48998,18.57113,6.11691,0.66625,0.03541,0.30659,0.10208,0,0,0,0,-0,0,0,0,-0,0,-0,0,-0,0,0,0,0,0,0,0,-0,0,-0,0,-0,0,-0,0,-0,0,0,0,0,0,0,0,0,0,0,0,0,0,0,0,0,0,0,0,0,0,0,0,0,0,0,0,0,0,0,0,0,0,0,0,0,0,0,0,0,1.28687,3.43052,0.59098,0.58652,0.59406,class1
0.84179,0.54065,4.81566,209.94333,4.67529,0.29387,0.11616,96.51041,0.10283,3.19386,11.21494,2.23767,0,0,12.84398,1.08845,1.08475,0.10151,3.86581,0.36365,32.21515,3.76465,18.9639,6.4102,0.66895,0.03738,0.31776,0.10147,0,0,0,0,-0,0,0,0,-0,0,-0,0,-0,0,0,0,0,0,0,0,-0,0,-0,0,-0,0,-0,0,-0,0,0,0,0,0,0,0,0,0,0,0,0,0,0,0,0,0,0,0,0,0,0,0,0,0,0,0,0,0,0,0,0,0,0,0,0,0,0,0,0,1.39121,3.54645,0.5626,0.72944,0.64016,class1
0.88334,0.47109,4.8126,262.91723,4.63469,0.23974,0.41749,94.79323,0.12767,5.43128,11.15662,2.25336,0,0,12.80001,1.1067,1.07164,0.09484,3.80782,0.33429,32.11369,3.5736,19.02743,6.45416,0.66734,0.03553,0.3113,0.10442,0,0,0,0,-0,0,0,0,-0,0,-0,0,-0,0,0,0,0,0,0,0,-0,0,-0,0,-0,0,-0,0,-0,0,0,0,0,0,0,0,0,0,0,0,0,0,0,0,0,0,0,0,0,0,0,0,0,0,0,0,0,0,0,0,0,0,0,0,0,0,0,0,0,1.37382,3.52761,0.5192,0.73314,0.6575,class1
0.86248,0.50418,4.85981,224.70486,4.64916,0.22756,0.19862,97.78749,0.09486,4.4351,11.14411,2.11974,0,0,12.80937,1.12123,1.07435,0.09378,3.8141,0.34213,32.21676,3.7676,18.99561,6.43226,0.66802,0.03695,0.31153,0.10345,0,0,0,0,-0,0,0,0,-0,0,-0,0,-0,0,0,0,0,0,0,0,-0,0,-0,0,-0,0,-0,0,-0,0,0,0,0,0,0,0,0,0,0,0,0,0,0,0,0,0,0,0,0,0,0,0,0,0,0,0,0,0,0,0,0,0,0,0,0,0,0,0,0,1.39121,3.54645,0.55259,0.73008,0.67096,class1
0.85705,0.51733,4.85163,265.24159,4.57799,0.23068,0.46641,97.82044,0.10133,5.4207,11.15314,2.10858,0,0,12.83855,1.11068,1.07912,0.09382,3.83805,0.34022,32.08472,3.5166,18.9639,6.4102,0.66817,0.0355,0.31581,0.10216,0,0,0,0,-0,0,0,0,-0,0,-0,0,-0,0,0,0,0,0,0,0,-0,0,-0,0,-0,0,-0,0,-0,0,0,0,0,0,0,0,0,0,0,0,0,0,0,0,0,0,0,0,0,0,0,0,0,0,0,0,0,0,0,0,0,0,0,0,0,0,0,0,0,1.39121,3.54645,0.55092,0.73229,0.68089,class1
0.84702,0.52965,4.80677,242.21611,4.42767,0.08864,0.42386,95.20406,0.1175,4.89808,11.19864,2.1295,0,0,12.87957,1.1235,1.08516,0.09956,3.8675,0.35645,32.24124,3.81179,19.12041,6.51681,0.66902,0.03679,0.32122,0.10107,0,0,0,0,-0,0,0,0,-0,0,-0,0,-0,0,0,0,0,0,0,0,-0,0,-0,0,-0,0,-0,0,-0,0,0,0,0,0,0,0,0,0,0,0,0,0,0,0,0,0,0,0,0,0,0,0,0,0,0,0,0,0,0,0,0,0,0,0,0,0,0,0,0,1.44338,3.60188,0.53923,0.75101,0.66568,class1
0.87504,0.48097,4.77495,252.17246,4.52691,0.48713,0.30896,94.69253,0.11617,5.61983,11.19872,2.43472,0,0,12.77646,1.10515,1.0682,0.09726,3.79583,0.3338,32.26732,3.85818,18.93781,6.39188,0.66699,0.03643,0.31021,0.10404,0,0,0,0,-0,0,0,0,-0,0,-0,0,-0,0,0,0,0,0,0,0,-0,0,-0,0,-0,0,-0,0,-0,0,0,0,0,0,0,0,0,0,0,0,0,0,0,0,0,0,0,0,0,0,0,0,0,0,0,0,0,0,0,0,0,0,0,0,0,0,0,0,0,1.25209,3.39029,0.52588,0.71617,0.66013,class1
0.86947,0.49308,4.82029,253.13986,4.5021,0.08743,1.00446,96.05284,0.1102,5.07733,11.14774,2.19365,0,0,12.79301,1.11178,1.07111,0.09443,3.80445,0.33235,32.21676,3.7676,19.074,6.48578,0.66763,0.03678,0.31165,0.10264,0,0,0,0,-0,0,0,0,-0,0,-0,0,-0,0,0,0,0,0,0,0,-0,0,-0,0,-0,0,-0,0,-0,0,0,0,0,0,0,0,0,0,0,0,0,0,0,0,0,0,0,0,0,0,0,0,0,0,0,0,0,0,0,0,0,0,0,0,0,0,0,0,0,1.30426,3.45033,0.53422,0.72356,0.6734,class1
0.84632,0.53033,4.81749,276.48594,4.70367,0.44764,0.29591,95.57369,0.11472,5.81998,11.13821,2.04396,0,0,12.84962,1.07543,1.08679,0.09194,3.86864,0.34129,32.00647,3.35654,18.83347,6.31702,0.66783,0.03364,0.31835,0.09781,0,0,0,0,-0,0,0,0,-0,0,-0,0,-0,0,0,0,0,0,0,0,-0,0,-0,0,-0,0,-0,0,-0,0,0,0,0,0,0,0,0,0,0,0,0,0,0,0,0,0,0,0,0,0,0,0,0,0,0,0,0,0,0,0,0,0,0,0,0,0,0,0,0,1.42599,3.58358,0.54424,0.73225,0.67425,class1
0.87031,0.49474,4.06083,213.77482,4.22893,0.44789,0.20552,145.99679,0.19067,5.49576,10.64904,1.75643,0,0,12.39772,0.90461,1.04164,0.09086,3.63704,0.37475,31.7717,2.80938,17.29445,4.83084,0.65652,0.02825,0.24403,0.10946,0,0,0,0,-0,0,0,0,-0,0,-0,0,-0,0,0,0,0,0,0,0,-0,0,-0,0,-0,0,-0,0,-0,0,0,0,0,0,0,0,0,0,0,0,0,0,0,0,0,0,0,0,0,0,0,0,0,0,0,0,0,0,0,0,0,0,0,0,0,0,0,0,0,0.64343,2.50977,0.70451,0.37832,0.51326,class1
0.86066,0.51135,4.82057,251.25294,4.57744,0.40582,0.35476,95.66748,0.11037,5.2939,11.21272,2.27605,0,0,12.85071,1.124,1.0773,0.10562,3.84149,0.35621,32.13689,3.61843,19.14649,6.53404,0.66891,0.03783,0.31788,0.1061,0,0,0,0,-0,0,0,0,-0,0,-0,0,-0,0,0,0,0,0,0,0,-0,0,-0,0,-0,0,-0,0,-0,0,0,0,0,0,0,0,0,0,0,0,0,0,0,0,0,0,0,0,0,0,0,0,0,0,0,0,0,0,0,0,0,0,0,0,0,0,0,0,0,1.21731,3.3492,0.53255,0.74842,0.67676,class1
0.88104,0.47208,4.82537,251.51518,4.53542,0.34672,0.32448,96.57975,0.119,5.51535,11.25833,2.56871,0,0,12.79439,1.087,1.06954,0.10048,3.80563,0.33645,32.19064,3.71965,19.2569,6.60535,0.66747,0.03567,0.31228,0.1053,0,0,0,0,-0,0,0,0,-0,0,-0,0,-0,0,0,0,0,0,0,0,-0,0,-0,0,-0,0,-0,0,-0,0,0,0,0,0,0,0,0,0,0,0,0,0,0,0,0,0,0,0,0,0,0,0,0,0,0,0,0,0,0,0,0,0,0,0,0,0,0,0,0,1.2347,3.36985,0.51419,0.73688,0.65743,class1
0.87175,0.49377,4.82841,274.23365,4.51156,0.26063,0.40856,95.90759,0.10759,5.97153,11.18457,2.27091,0,0,12.81042,1.10887,1.07534,0.09851,3.82262,0.34773,32.13689,3.61843,18.98998,6.42835,0.66766,0.03638,0.31328,0.10306,0,0,0,0,-0,0,0,0,-0,0,-0,0,-0,0,0,0,0,0,0,0,-0,0,-0,0,-0,0,-0,0,-0,0,0,0,0,0,0,0,0,0,0,0,0,0,0,0,0,0,0,0,0,0,0,0,0,0,0,0,0,0,0,0,0,0,0,0,0,0,0,0,0,1.33904,3.48936,0.52421,0.72932,0.6644,class1
0.87253,0.49223,4.80415,216.42035,4.57956,0.18574,0.30504,94.8985,0.11167,6.99326,11.2905,2.65453,0,0,12.80552,1.09566,1.06979,0.10481,3.81506,0.33579,32.29341,3.90384,19.19866,6.56806,0.6677,0.03648,0.31552,0.10532,0,0,0,0,-0,0,0,0,-0,0,-0,0,-0,0,0,0,0,0,0,0,-0,0,-0,0,-0,0,-0,0,-0,0,0,0,0,0,0,0,0,0,0,0,0,0,0,0,0,0,0,0,0,0,0,0,0,0,0,0,0,0,0,0,0,0,0,0,0,0,0,0,0,1.21731,3.3492,0.53589,0.76722,0.69582,class1
0.8665,0.50026,4.77265,190.85096,4.64685,0.20683,0.27265,97.52018,0.10979,4.89883,11.10584,2.10521,0,0,12.78358,1.11961,1.0693,0.09705,3.79619,0.34094,32.13838,3.62127,18.91722,6.37732,0.66735,0.03674,0.30894,0.10529,0,0,0,0,-0,0,0,0,-0,0,-0,0,-0,0,0,0,0,0,0,0,-0,0,-0,0,-0,0,-0,0,-0,0,0,0,0,0,0,0,0,0,0,0,0,0,0,0,0,0,0,0,0,0,0,0,0,0,0,0,0,0,0,0,0,0,0,0,0,0,0,0,0,1.35643,3.50858,0.52755,0.68991,0.64173,class1
0.86185,0.50785,4.7741,234.8409,4.62713,0.24458,0.42658,94.28132,0.11576,6.3567,11.12298,2.0527,0,0,12.82736,1.10394,1.08022,0.09564,3.84125,0.34763,32.03518,3.41635,18.7657,6.267,0.66776,0.03559,0.31523,0.10078,0,0,0,0,-0,0,0,0,-0,0,-0,0,-0,0,0,0,0,0,0,0,-0,0,-0,0,-0,0,-0,0,-0,0,0,0,0,0,0,0,0,0,0,0,0,0,0,0,0,0,0,0,0,0,0,0,0,0,0,0,0,0,0,0,0,0,0,0,0,0,0,0,0,1.33904,3.48936,0.53923,0.73362,0.67038,class1
0.8628,0.50521,4.79918,261.52013,4.52244,0.29843,0.3031,94.95535,0.12567,4.75378,11.18653,2.20585,0,0,12.85111,1.09295,1.08448,0.09657,3.86193,0.34802,32.03386,3.41363,19.04787,6.46809,0.66814,0.03504,0.31855,0.09996,0,0,0,0,-0,0,0,0,-0,0,-0,0,-0,0,0,0,0,0,0,0,-0,0,-0,0,-0,0,-0,0,-0,0,0,0,0,0,0,0,0,0,0,0,0,0,0,0,0,0,0,0,0,0,0,0,0,0,0,0,0,0,0,0,0,0,0,0,0,0,0,0,0,1.37382,3.52761,0.51753,0.73342,0.62938,class1
0.87938,0.47612,4.81204,269.78216,4.54175,0.27604,0.48561,95.8699,0.11117,5.40858,11.18765,2.4275,0,0,12.77885,1.11023,1.06572,0.10345,3.7901,0.34767,32.26902,3.86118,18.91722,6.37732,0.66724,0.03686,0.30928,0.10783,0,0,0,0,-0,0,0,0,-0,0,-0,0,-0,0,0,0,0,0,0,0,-0,0,-0,0,-0,0,-0,0,-0,0,0,0,0,0,0,0,0,0,0,0,0,0,0,0,0,0,0,0,0,0,0,0,0,0,0,0,0,0,0,0,0,0,0,0,0,0,0,0,0,1.21731,3.3492,0.52421,0.72717,0.67156,class1
0.84182,0.54377,4.84105,276.63392,4.52306,0.23072,0.06885,107.19197,0.1065,1.54664,11.1316,2.16062,0,0,12.7829,1.10198,1.07183,0.09197,3.80245,0.33095,32.13987,3.62413,18.87039,6.34382,0.66735,0.03636,0.30976,0.10186,0,0,0,0,-0,0,0,0,-0,0,-0,0,-0,0,0,0,0,0,0,0,-0,0,-0,0,-0,0,-0,0,-0,0,0,0,0,0,0,0,0,0,0,0,0,0,0,0,0,0,0,0,0,0,0,0,0,0,0,0,0,0,0,0,0,0,0,0,0,0,0,0,0,1.39121,3.54645,0.57095,0.68346,0.64154,class1
0.81694,0.57565,4.82908,240.5691,4.61724,0.1372,0.09068,98.05388,0.10574,1.8019,11.20649,2.40818,0,0,12.79293,1.08289,1.07274,0.09762,3.8177,0.33524,32.19064,3.71965,19.17851,6.555,0.6675,0.03598,0.31171,0.10463,0,0,0,0,-0,0,0,0,-0,0,-0,0,-0,0,0,0,0,0,0,0,-0,0,-0,0,-0,0,-0,0,-0,0,0,0,0,0,0,0,0,0,0,0,0,0,0,0,0,0,0,0,0,0,0,0,0,0,0,0,0,0,0,0,0,0,0,0,0,0,0,0,0,1.33904,3.48936,0.58264,0.68006,0.65183,class1
0.85852,0.51306,4.17891,219.88375,4.18204,0.58234,0.7883,82.27793,0.20933,4.83749,10.66288,1.79866,0,0,12.40739,0.89692,1.04277,0.08947,3.64561,0.36871,31.71953,2.66981,17.32053,4.86389,0.65676,0.02789,0.24642,0.11018,0,0,0,0,-0,0,0,0,-0,0,-0,0,-0,0,0,0,0,0,0,0,-0,0,-0,0,-0,0,-0,0,-0,0,0,0,0,0,0,0,0,0,0,0,0,0,0,0,0,0,0,0,0,0,0,0,0,0,0,0,0,0,0,0,0,0,0,0,0,0,0,0,0,0.6956,2.60256,0.69282,0.38655,0.52137,class1
0.86361,0.50507,4.82856,272.24251,4.51017,0.20989,0.47733,96.22451,0.11796,6.5369,11.27043,2.52598,0,0,12.84143,1.08129,1.08076,0.10321,3.85539,0.3562,32.21515,3.76465,18.93781,6.39188,0.66775,0.03487,0.31872,0.10232,0,0,0,0,-0,0,0,0,-0,0,-0,0,-0,0,0,0,0,0,0,0,-0,0,-0,0,-0,0,-0,0,-0,0,0,0,0,0,0,0,0,0,0,0,0,0,0,0,0,0,0,0,0,0,0,0,0,0,0,0,0,0,0,0,0,0,0,0,0,0,0,0,0,1.30426,3.45033,0.52588,0.74353,0.64699,class1
0.90179,0.43433,4.85238,260.85328,4.41578,0.10716,0.56866,97.85301,0.11951,6.45912,11.12814,2.1154,0,0,12.79861,1.13934,1.066,0.08646,3.7782,0.31067,32.18907,3.71673,19.06824,6.48189,0.66777,0.03607,0.30977,0.10444,0,0,0,0,-0,0,0,0,-0,0,-0,0,-0,0,0,0,0,0,0,0,-0,0,-0,0,-0,0,-0,0,-0,0,0,0,0,0,0,0,0,0,0,0,0,0,0,0,0,0,0,0,0,0,0,0,0,0,0,0,0,0,0,0,0,0,0,0,0,0,0,0,0,1.51294,3.67333,0.51419,0.72367,0.65107,class1
0.81886,0.57367,4.84771,241.6064,4.48776,0.35996,0.25338,97.92133,0.10517,3.8721,11.27921,2.48342,0,0,12.84698,1.06503,1.0872,0.1017,3.87677,0.36155,32.24124,3.81179,19.06824,6.48189,0.66808,0.035,0.31943,0.09909,0,0,0,0,-0,0,0,0,-0,0,-0,0,-0,0,0,0,0,0,0,0,-0,0,-0,0,-0,0,-0,0,-0,0,0,0,0,0,0,0,0,0,0,0,0,0,0,0,0,0,0,0,0,0,0,0,0,0,0,0,0,0,0,0,0,0,0,0,0,0,0,0,0,1.32165,3.46994,0.57596,0.73279,0.68332,class1
0.86127,0.50932,4.81502,251.4274,4.53549,0.18753,0.26648,95.37874,0.12267,5.67724,11.1828,2.15337,0,0,12.85447,1.09074,1.08585,0.10118,3.87268,0.35552,32.13689,3.61843,18.80739,6.29789,0.66857,0.03659,0.31906,0.10219,0,0,0,0,-0,0,0,0,-0,0,-0,0,-0,0,0,0,0,0,0,0,-0,0,-0,0,-0,0,-0,0,-0,0,0,0,0,0,0,0,0,0,0,0,0,0,0,0,0,0,0,0,0,0,0,0,0,0,0,0,0,0,0,0,0,0,0,0,0,0,0,0,0,1.28687,3.43052,0.53088,0.75748,0.63371,class1
0.88907,0.45817,4.80314,246.21905,4.48362,0.16754,0.30916,95.69025,0.11968,4.72671,11.22663,2.50127,0,0,12.78113,1.09765,1.06808,0.09647,3.79523,0.33119,32.26732,3.85818,19.01607,6.44635,0.66725,0.03591,0.31021,0.10484,0,0,0,0,-0,0,0,0,-0,0,-0,0,-0,0,0,0,0,0,0,0,-0,0,-0,0,-0,0,-0,0,-0,0,0,0,0,0,0,0,0,0,0,0,0,0,0,0,0,0,0,0,0,0,0,0,0,0,0,0,0,0,0,0,0,0,0,0,0,0,0,0,0,1.30426,3.45033,0.52922,0.7317,0.65453,class1
0.85725,0.51895,4.78905,248.70312,4.60368,0.14005,0.41098,94.58455,0.11767,4.73437,11.17707,2.22824,0,0,12.82597,1.09606,1.07825,0.09829,3.83649,0.34816,32.13838,3.62127,18.81271,6.30182,0.66806,0.0358,0.31545,0.10187,0,0,0,0,-0,0,0,0,-0,0,-0,0,-0,0,0,0,0,0,0,0,-0,0,-0,0,-0,0,-0,0,-0,0,0,0,0,0,0,0,0,0,0,0,0,0,0,0,0,0,0,0,0,0,0,0,0,0,0,0,0,0,0,0,0,0,0,0,0,0,0,0,0,1.35643,3.50858,0.54758,0.72846,0.67055,class1
0.88274,0.47149,4.90848,230.60589,4.52109,0.16635,0.28357,99.38959,0.11935,4.69286,11.21073,2.37062,0,0,12.81297,1.12405,1.06819,0.09706,3.79755,0.33142,32.24124,3.81179,19.06824,6.48189,0.66803,0.03633,0.31226,0.10705,0,0,0,0,-0,0,0,0,-0,0,-0,0,-0,0,0,0,0,0,0,0,-0,0,-0,0,-0,0,-0,0,-0,0,0,0,0,0,0,0,0,0,0,0,0,0,0,0,0,0,0,0,0,0,0,0,0,0,0,0,0,0,0,0,0,0,0,0,0,0,0,0,0,1.4086,3.5651,0.52254,0.72664,0.65453,class1
0.86584,0.50166,4.82244,256.77916,4.59367,0.05253,0.83284,96.13367,0.11017,5.11885,11.14811,2.18934,0,0,12.80814,1.09078,1.07632,0.09854,3.8272,0.34612,32.009,3.36189,18.81805,6.30575,0.6675,0.03539,0.31315,0.10228,0,0,0,0,-0,0,0,0,-0,0,-0,0,-0,0,0,0,0,0,0,0,-0,0,-0,0,-0,0,-0,0,-0,0,0,0,0,0,0,0,0,0,0,0,0,0,0,0,0,0,0,0,0,0,0,0,0,0,0,0,0,0,0,0,0,0,0,0,0,0,0,0,0,1.28687,3.43052,0.53589,0.73286,0.67977,class1
0.84458,0.53621,4.82506,248.04753,4.61087,0.42619,0.2214,95.99638,0.11167,5.93853,11.27257,2.44938,0,0,12.85656,1.07864,1.08526,0.107,3.87624,0.36762,32.34558,3.99308,19.06824,6.48189,0.66864,0.03655,0.3206,0.102,0,0,0,0,-0,0,0,0,-0,0,-0,0,-0,0,0,0,0,0,0,0,-0,0,-0,0,-0,0,-0,0,-0,0,0,0,0,0,0,0,0,0,0,0,0,0,0,0,0,0,0,0,0,0,0,0,0,0,0,0,0,0,0,0,0,0,0,0,0,0,0,0,0,1.2347,3.36985,0.54591,0.76455,0.67481,class1
0.88683,0.46544,4.84585,281.33502,4.52197,0.33022,0.24931,97.58056,0.11024,3.17505,11.14243,2.15103,0,0,12.79445,1.14141,1.06622,0.0978,3.78644,0.33092,32.21515,3.76465,19.09432,6.49942,0.66828,0.03845,0.3103,0.10665,0,0,0,0,-0,0,0,0,-0,0,-0,0,-0,0,0,0,0,0,0,0,-0,0,-0,0,-0,0,-0,0,-0,0,0,0,0,0,0,0,0,0,0,0,0,0,0,0,0,0,0,0,0,0,0,0,0,0,0,0,0,0,0,0,0,0,0,0,0,0,0,0,0,1.37382,3.52761,0.50584,0.72879,0.6674,class1
0.86288,0.50657,3.3466,162.53726,4.11557,0.72677,0.1744,98.73469,0.196,5.16472,10.67508,1.79026,0,0,12.42423,0.92232,1.04335,0.09159,3.64907,0.37552,31.69345,2.59682,17.21619,4.72947,0.65721,0.02864,0.24771,0.11216,0,0,0,0,-0,0,0,0,-0,0,-0,0,-0,0,0,0,0,0,0,0,-0,0,-0,0,-0,0,-0,0,-0,0,0,0,0,0,0,0,0,0,0,0,0,0,0,0,0,0,0,0,0,0,0,0,0,0,0,0,0,0,0,0,0,0,0,0,0,0,0,0,0,0.6956,2.60256,0.66444,0.38638,0.52303,class1
0.82636,0.56111,4.81013,227.73331,4.6924,0.18729,0.08863,96.00495,0.1035,3.93217,11.30329,2.45013,0,0,12.86093,1.08993,1.08453,0.10826,3.87452,0.36831,32.34741,3.99617,19.20464,6.57193,0.66982,0.03859,0.32033,0.10447,0,0,0,0,-0,0,0,0,-0,0,-0,0,-0,0,0,0,0,0,0,0,-0,0,-0,0,-0,0,-0,0,-0,0,0,0,0,0,0,0,0,0,0,0,0,0,0,0,0,0,0,0,0,0,0,0,0,0,0,0,0,0,0,0,0,0,0,0,0,0,0,0,0,1.4086,3.66548,0.56761,0.75324,0.67048,class1
0.87171,0.49188,3.96452,131.41595,4.78517,0.13323,0.19434,109.7318,0.06185,2.35669,10.6587,1.6268,0,0,12.46803,0.87092,1.06825,0.10124,3.7635,0.41016,31.72032,2.67198,17.40176,4.96449,0.65733,0.02913,0.27304,0.09275,0,0,0,0,-0,0,0,0,-0,0,-0,0,-0,0,0,0,0,0,0,0,-0,0,-0,0,-0,0,-0,0,-0,0,0,0,0,0,0,0,0,0,0,0,0,0,0,0,0,0,0,0,0,0,0,0,0,0,0,0,0,0,0,0,0,0,0,0,0,0,0,0,0,0.60865,2.65864,0.53422,0.42991,0.36984,class1
0.89948,0.43934,2.70274,100.2266,4.66187,0.24596,0.28265,119.38639,0.06472,2.29237,10.388,1.19857,0,0,12.25488,0.66862,1.04962,0.0836,3.66847,0.36441,31.48477,1.90241,16.45972,3.5166,0.65173,0.02186,0.24685,0.08052,0,0,0,0,-0,0,0,0,-0,0,-0,0,-0,0,0,0,0,0,0,0,-0,0,-0,0,-0,0,-0,0,-0,0,0,0,0,0,0,0,0,0,0,0,0,0,0,0,0,0,0,0,0,0,0,0,0,0,0,0,0,0,0,0,0,0,0,0,0,0,0,0,0,0.24346,1.57509,0.49583,0.29524,0.2751,class1
0.89262,0.455,3.90891,104.56711,4.68748,0.18521,0.45121,118.26253,0.06588,1.78887,10.49702,1.40492,0,0,12.31833,0.77428,1.04787,0.07848,3.66475,0.32801,31.66736,2.52145,16.95534,4.36447,0.65433,0.02588,0.25231,0.08759,0,0,0,0,-0,0,0,0,-0,0,-0,0,-0,0,0,0,0,0,0,0,-0,0,-0,0,-0,0,-0,0,-0,0,0,0,0,0,0,0,0,0,0,0,0,0,0,0,0,0,0,0,0,0,0,0,0,0,0,0,0,0,0,0,0,0,0,0,0,0,0,0,0,0.45214,2.28882,0.48915,0.32222,0.30844,class1
0.88572,0.46607,3.63834,93.57996,4.76218,0.05897,0.06889,92.27996,0.05982,2.69654,10.57281,1.61592,0,0,12.3597,0.78235,1.05755,0.08991,3.70974,0.37612,31.64128,2.44348,17.08577,4.64131,0.65516,0.0276,0.26159,0.08491,0,0,0,0,-0,0,0,0,-0,0,-0,0,-0,0,0,0,0,0,0,0,-0,0,-0,0,-0,0,-0,0,-0,0,0,0,0,0,0,0,0,0,0,0,0,0,0,0,0,0,0,0,0,0,0,0,0,0,0,0,0,0,0,0,0,0,0,0,0,0,0,0,0,0.48692,2.28167,0.53756,0.36617,0.32676,class1
0.83728,0.54742,3.43808,94.93284,4.71123,0.7763,0.15293,117.67159,0.07069,1.81516,10.48944,1.31709,0,0,12.33904,0.78249,1.0571,0.08234,3.70447,0.34898,31.58911,2.27864,16.95534,4.36447,0.65439,0.02706,0.25835,0.08594,0,0,0,0,-0,0,0,0,-0,0,-0,0,-0,0,0,0,0,0,0,0,-0,0,-0,0,-0,0,-0,0,-0,0,0,0,0,0,0,0,0,0,0,0,0,0,0,0,0,0,0,0,0,0,0,0,0,0,0,0,0,0,0,0,0,0,0,0,0,0,0,0,0,0.41736,2.13148,0.60267,0.33607,0.31785,class1
0.8769,0.48166,3.97193,95.06473,4.86344,0.25189,0.3781,112.46626,0.06554,1.42212,10.51624,1.28582,0,0,12.36731,0.82878,1.0556,0.08336,3.69326,0.35406,31.66736,2.52145,17.00751,4.4411,0.65512,0.02629,0.2586,0.08883,0,0,0,0,-0,0,0,0,-0,0,-0,0,-0,0,0,0,0,0,0,0,-0,0,-0,0,-0,0,-0,0,-0,0,0,0,0,0,0,0,0,0,0,0,0,0,0,0,0,0,0,0,0,0,0,0,0,0,0,0,0,0,0,0,0,0,0,0,0,0,0,0,0,0.50431,2.2377,0.48414,0.3229,0.27296,class1
0.8932,0.44846,4.77733,111.19204,4.78765,0.16551,0.37327,116.40248,0.06337,3.29216,10.62027,1.56459,0,0,12.43293,0.89584,1.05878,0.09359,3.71898,0.37748,31.71953,2.66981,17.3727,4.92889,0.65705,0.02975,0.26732,0.09462,0,0,0,0,-0,0,0,0,-0,0,-0,0,-0,0,0,0,0,0,0,0,-0,0,-0,0,-0,0,-0,0,-0,0,0,0,0,0,0,0,0,0,0,0,0,0,0,0,0,0,0,0,0,0,0,0,0,0,0,0,0,0,0,0,0,0,0,0,0,0,0,0,0,0.53909,2.38678,0.48581,0.38968,0.34251,class1
0.86273,0.50599,4.32549,87.76025,4.69456,0.28538,0.04071,94.32777,0.07137,1.90376,10.39696,1.16903,0,0,12.27159,0.67551,1.05535,0.08165,3.69342,0.36884,31.4326,1.90813,16.43364,3.46426,0.65204,0.02266,0.25156,0.07788,0,0,0,0,-0,0,0,0,-0,0,-0,0,-0,0,0,0,0,0,0,0,-0,0,-0,0,-0,0,-0,0,-0,0,0,0,0,0,0,0,0,0,0,0,0,0,0,0,0,0,0,0,0,0,0,0,0,0,0,0,0,0,0,0,0,0,0,0,0,0,0,0,0,0.27824,1.68097,0.5409,0.30758,0.29441,class1
0.89865,0.43837,4.10683,103.87055,4.82018,0.43808,0.45483,102.10999,0.07429,2.28308,10.54223,1.58416,0,0,12.3427,0.80328,1.04772,0.08382,3.67325,0.32582,31.72032,2.67198,16.93144,4.3287,0.65481,0.02724,0.25812,0.08998,0,0,0,0,-0,0,0,0,-0,0,-0,0,-0,0,0,0,0,0,0,0,-0,0,-0,0,-0,0,-0,0,-0,0,0,0,0,0,0,0,0,0,0,0,0,0,0,0,0,0,0,0,0,0,0,0,0,0,0,0,0,0,0,0,0,0,0,0,0,0,0,0,0,0.43475,2.08493,0.48414,0.33552,0.28449,class1
0.85673,0.51771,2.62222,178.65126,4.12526,0.37048,0.8782,52.86046,0.22785,4.18525,10.66755,1.65451,0,0,12.44471,0.92306,1.04861,0.08484,3.66808,0.3624,31.7717,2.80938,17.42487,4.9925,0.65747,0.02781,0.25343,0.10793,0,0,0,0,-0,0,0,0,-0,0,-0,0,-0,0,0,0,0,0,0,0,-0,0,-0,0,-0,0,-0,0,-0,0,0,0,0,0,0,0,0,0,0,0,0,0,0,0,0,0,0,0,0,0,0,0,0,0,0,0,0,0,0,0,0,0,0,0,0,0,0,0,0,0.76516,2.7198,0.59933,0.40038,0.5044,class1
0.84875,0.52894,3.89851,114.0574,4.75914,0.64505,0.39833,86.66461,0.07533,1.72568,10.69155,1.81891,0,0,12.44301,0.83562,1.06779,0.09767,3.76349,0.39481,31.74728,2.74505,17.27387,4.80453,0.65749,0.03034,0.27352,0.08957,0,0,0,0,-0,0,0,0,-0,0,-0,0,-0,0,0,0,0,0,0,0,-0,0,-0,0,-0,0,-0,0,-0,0,0,0,0,0,0,0,0,0,0,0,0,0,0,0,0,0,0,0,0,0,0,0,0,0,0,0,0,0,0,0,0,0,0,0,0,0,0,0,0,0.60865,2.51844,0.54758,0.39307,0.34945,class1
0.81544,0.58138,4.80219,119.34083,5.03281,0.36723,0.66766,97.49092,0.08142,2.46095,10.81544,1.76823,0,0,12.59535,0.98577,1.07271,0.10374,3.78772,0.41443,31.80055,2.88325,18.19421,5.7965,0.66134,0.03293,0.28649,0.09879,0,0,0,0,-0,0,0,0,-0,0,-0,0,-0,0,0,0,0,0,0,0,-0,0,-0,0,-0,0,-0,0,-0,0,0,0,0,0,0,0,0,0,0,0,0,0,0,0,0,0,0,0,0,0,0,0,0,0,0,0,0,0,0,0,0,0,0,0,0,0,0,0,0,0.88689,2.97135,0.54758,0.42112,0.35796,class1
0.87811,0.47989,3.89337,136.7942,4.8026,0.30304,0.64637,110.64044,0.06526,2.57132,10.47721,1.42934,0,0,12.32414,0.71546,1.05753,0.08501,3.70221,0.36055,31.48516,1.90397,16.80079,4.12526,0.65301,0.02076,0.25528,0.08431,0,0,0,0,-0,0,0,0,-0,0,-0,0,-0,0,0,0,0,0,0,0,-0,0,-0,0,-0,0,-0,0,-0,0,0,0,0,0,0,0,0,0,0,0,0,0,0,0,0,0,0,0,0,0,0,0,0,0,0,0,0,0,0,0,0,0,0,0,0,0,0,0,0,0.29563,1.73121,0.52087,0.31323,0.27857,class1
0.88815,0.45572,6.8345,93.22146,4.80083,0.21896,0.31516,88.48688,0.06684,2.8754,10.62688,1.52769,0,0,12.44951,0.90118,1.06319,0.09139,3.73989,0.37803,31.71953,2.81858,17.39879,4.96087,0.65731,0.03027,0.27241,0.09166,0,0,0,0,-0,0,0,0,-0,0,-0,0,-0,0,0,0,0,0,0,0,-0,0,-0,0,-0,0,-0,0,-0,0,0,0,0,0,0,0,0,0,0,0,0,0,0,0,0,0,0,0,0,0,0,0,0,0,0,0,0,0,0,0,0,0,0,0,0,0,0,0,0,0.55648,2.3444,0.48414,0.4151,0.33283,class1
0.87844,0.47715,3.88764,156.48807,4.80569,0.27532,0.07573,120.11466,0.0704,2.15011,10.46711,1.28474,0,0,12.32245,0.77732,1.05045,0.08396,3.67617,0.35277,31.56302,2.19112,16.72058,3.99308,0.65382,0.02528,0.25386,0.08681,0,0,0,0,-0,0,0,0,-0,0,-0,0,-0,0,0,0,0,0,0,0,-0,0,-0,0,-0,0,-0,0,-0,0,0,0,0,0,0,0,0,0,0,0,0,0,0,0,0,0,0,0,0,0,0,0,0,0,0,0,0,0,0,0,0,0,0,0,0,0,0,0,0,0.43475,2.17021,0.50584,0.30068,0.28101,class1
0.89151,0.45481,4.76827,102.1278,4.78615,0.07962,0.29185,95.38214,0.07277,1.95807,10.43341,1.21545,0,0,12.28743,0.71552,1.04677,0.07319,3.65649,0.31232,31.48555,1.90555,16.72425,3.99927,0.65317,0.02294,0.25,0.08301,0,0,0,0,-0,0,0,0,-0,0,-0,0,-0,0,0,0,0,0,0,0,-0,0,-0,0,-0,0,-0,0,-0,0,0,0,0,0,0,0,0,0,0,0,0,0,0,0,0,0,0,0,0,0,0,0,0,0,0,0,0,0,0,0,0,0,0,0,0,0,0,0,0,0.48692,2.20071,0.48414,0.30574,0.28309,class1
0.89377,0.44915,3.88536,125.5055,4.83289,0.24734,0.1734,114.35411,0.06787,2.51841,10.53477,1.44661,0,0,12.36952,0.78069,1.0615,0.08963,3.72215,0.37485,31.61519,2.36264,17.0336,4.47869,0.6546,0.02456,0.26278,0.08439,0,0,0,0,-0,0,0,0,-0,0,-0,0,-0,0,0,0,0,0,0,0,-0,0,-0,0,-0,0,-0,0,-0,0,0,0,0,0,0,0,0,0,0,0,0,0,0,0,0,0,0,0,0,0,0,0,0,0,0,0,0,0,0,0,0,0,0,0,0,0,0,0,0,0.36519,1.91751,0.50417,0.38082,0.33177,class1
0.89039,0.45663,4.43597,91.08731,4.8177,0.12815,0.55511,99.76108,0.06623,3.01714,10.67446,1.89129,0,0,12.406,0.8649,1.05271,0.08133,3.68782,0.32787,31.69345,2.59682,17.60747,5.20492,0.65686,0.02901,0.2641,0.09098,0,0,0,0,-0,0,0,0,-0,0,-0,0,-0,0,0,0,0,0,0,0,-0,0,-0,0,-0,0,-0,0,-0,0,0,0,0,0,0,0,0,0,0,0,0,0,0,0,0,0,0,0,0,0,0,0,0,0,0,0,0,0,0,0,0,0,0,0,0,0,0,0,0,0.62604,2.62019,0.49249,0.35011,0.30446,class1
0.88857,0.45999,3.45595,102.36514,4.5713,0.17525,0.46124,127.19232,0.07095,2.06602,10.50947,1.54287,0,0,12.30865,0.79825,1.04017,0.07839,3.62639,0.31509,31.56355,2.19291,17.03595,4.48207,0.65402,0.02521,0.24692,0.09062,0,0,0,0,-0,0,0,0,-0,0,-0,0,-0,0,0,0,0,0,0,0,-0,0,-0,0,-0,0,-0,0,-0,0,0,0,0,0,0,0,0,0,0,0,0,0,0,0,0,0,0,0,0,0,0,0,0,0,0,0,0,0,0,0,0,0,0,0,0,0,0,0,0,0.41736,2.04458,0.49583,0.26375,0.25996,class1
0.88019,0.47542,3.96814,104.17476,4.88228,0.26,0.76785,90.21135,0.06702,3.09842,10.67312,1.70482,0,0,12.4552,0.88807,1.0667,0.10287,3.75794,0.43528,31.82483,2.94378,17.63691,5.23777,0.65766,0.03197,0.2724,0.09232,0,0,0,0,-0,0,0,0,-0,0,-0,0,-0,0,0,0,0,0,0,0,-0,0,-0,0,-0,0,-0,0,-0,0,0,0,0,0,0,0,0,0,0,0,0,0,0,0,0,0,0,0,0,0,0,0,0,0,0,0,0,0,0,0,0,0,0,0,0,0,0,0,0,0.64343,2.71802,0.48247,0.4076,0.35281,class1
0.84413,0.53911,3.45307,180.32105,4.05851,0.36641,0.89018,51.80322,0.23776,3.47601,10.6675,1.61928,0,0,12.43624,0.906,1.05033,0.08427,3.67575,0.35754,31.74562,2.74061,17.3727,4.92889,0.658,0.0295,0.2554,0.10449,0,0,0,0,-0,0,0,0,-0,0,-0,0,-0,0,0,0,0,0,0,0,-0,0,-0,0,-0,0,-0,0,-0,0,0,0,0,0,0,0,0,0,0,0,0,0,0,0,0,0,0,0,0,0,0,0,0,0,0,0,0,0,0,0,0,0,0,0,0,0,0,0,0,0.71299,2.63253,0.65109,0.39733,0.48601,class1
0.88286,0.46956,5.50103,101.40831,4.71617,0.11102,0.12905,121.18932,0.06609,2.40232,10.48444,1.55421,0,0,12.28025,0.72238,1.0467,0.08242,3.66244,0.32647,31.58911,2.27864,16.72058,3.99308,0.65336,0.02634,0.25204,0.08278,0,0,0,0,-0,0,0,0,-0,0,-0,0,-0,0,0,0,0,0,0,0,-0,0,-0,0,-0,0,-0,0,-0,0,0,0,0,0,0,0,0,0,0,0,0,0,0,0,0,0,0,0,0,0,0,0,0,0,0,0,0,0,0,0,0,0,0,0,0,0,0,0,0,0.38258,1.96094,0.55259,0.32171,0.29898,class1
0.89816,0.44157,4.83385,98.21632,4.77068,0.087,0.29847,121.98127,0.06725,2.38415,10.38676,1.09762,0,0,12.25095,0.63371,1.04988,0.06905,3.66562,0.30477,31.43352,1.68479,16.56879,3.72549,0.65205,0.02059,0.24774,0.07629,0,0,0,0,-0,0,0,0,-0,0,-0,0,-0,0,0,0,0,0,0,0,-0,0,-0,0,-0,0,-0,0,-0,0,0,0,0,0,0,0,0,0,0,0,0,0,0,0,0,0,0,0,0,0,0,0,0,0,0,0,0,0,0,0,0,0,0,0,0,0,0,0,0,0.38258,2.05138,0.53088,0.31775,0.29166,class1
0.89282,0.45035,3.90213,131.27273,4.96062,0.25039,0.14674,133.36829,0.06745,2.73039,10.66823,1.85905,0,0,12.41008,0.84606,1.0571,0.09479,3.71936,0.38123,31.74562,2.74061,17.34662,4.89657,0.6568,0.02994,0.26719,0.09266,0,0,0,0,-0,0,0,0,-0,0,-0,0,-0,0,0,0,0,0,0,0,-0,0,-0,0,-0,0,-0,0,-0,0,0,0,0,0,0,0,0,0,0,0,0,0,0,0,0,0,0,0,0,0,0,0,0,0,0,0,0,0,0,0,0,0,0,0,0,0,0,0,0,0.57387,2.52661,0.44908,0.37469,0.31348,class1
0.89206,0.45153,4.90534,109.11772,4.85984,0.12798,0.26861,138.61864,0.06463,2.63043,10.52223,1.58765,0,0,12.31532,0.75955,1.0494,0.0796,3.67391,0.32743,31.66736,2.52145,16.87709,4.24573,0.65405,0.02608,0.25458,0.08611,0,0,0,0,-0,0,0,0,-0,0,-0,0,-0,0,0,0,0,0,0,0,-0,0,-0,0,-0,0,-0,0,-0,0,0,0,0,0,0,0,0,0,0,0,0,0,0,0,0,0,0,0,0,0,0,0,0,0,0,0,0,0,0,0,0,0,0,0,0,0,0,0,0,0.43475,2.17021,0.49416,0.33116,0.28962,class1
0.91483,0.40284,1.4995,89.96592,4.50886,0.08696,0.47956,93.74474,0.06783,2.64798,10.4079,1.40092,0,0,12.20441,0.60022,1.04067,0.06576,3.62277,0.28934,31.51085,2.00361,16.59015,3.76465,0.65163,0.0216,0.23913,0.07561,0,0,0,0,-0,0,0,0,-0,0,-0,0,-0,0,0,0,0,0,0,0,-0,0,-0,0,-0,0,-0,0,-0,0,0,0,0,0,0,0,0,0,0,0,0,0,0,0,0,0,0,0,0,0,0,0,0,0,0,0,0,0,0,0,0,0,0,0,0,0,0,0,0,0.31302,1.77987,0.45075,0.27561,0.25663,class1
0.89105,0.4557,4.09557,112.97049,4.79733,0.36116,0.39718,100.05531,0.06424,2.72975,10.55981,1.64486,0,0,12.37494,0.75856,1.06652,0.09697,3.75027,0.41712,31.53694,2.28581,17.00751,4.53209,0.65454,0.02586,0.26541,0.0841,0,0,0,0,-0,0,0,0,-0,0,-0,0,-0,0,0,0,0,0,0,0,-0,0,-0,0,-0,0,-0,0,-0,0,0,0,0,0,0,0,0,0,0,0,0,0,0,0,0,0,0,0,0,0,0,0,0,0,0,0,0,0,0,0,0,0,0,0,0,0,0,0,0,0.45214,2.20813,0.49917,0.38759,0.32461,class1
0.87453,0.48704,3.84634,107.48509,4.80071,0.34456,0.21546,122.53626,0.07127,2.12473,10.58737,1.61866,0,0,12.37591,0.83574,1.05469,0.08942,3.69949,0.36965,31.7717,2.80938,17.19011,4.6949,0.65585,0.02887,0.26173,0.08933,0,0,0,0,-0,0,0,0,-0,0,-0,0,-0,0,0,0,0,0,0,0,-0,0,-0,0,-0,0,-0,0,-0,0,0,0,0,0,0,0,0,0,0,0,0,0,0,0,0,0,0,0,0,0,0,0,0,0,0,0,0,0,0,0,0,0,0,0,0,0,0,0,0,0.50431,2.31737,0.53923,0.33988,0.28474,class1
0.88398,0.46807,3.70893,103.09122,4.81816,0.24641,0.35637,115.72214,0.06961,1.92373,10.53282,1.66279,0,0,12.31141,0.73945,1.04898,0.08766,3.6704,0.3513,31.6158,2.36457,16.9837,4.40636,0.65365,0.02409,0.25099,0.08831,0,0,0,0,-0,0,0,0,-0,0,-0,0,-0,0,0,0,0,0,0,0,-0,0,-0,0,-0,0,-0,0,-0,0,0,0,0,0,0,0,0,0,0,0,0,0,0,0,0,0,0,0,0,0,0,0,0,0,0,0,0,0,0,0,0,0,0,0,0,0,0,0,0,0.45214,2.28882,0.44574,0.30054,0.27392,class1
0.90194,0.43383,3.60071,103.4373,4.58657,0.52709,0.25563,107.77596,0.06149,3.2494,10.50882,1.44546,0,0,12.34328,0.75632,1.05597,0.0783,3.70015,0.32804,31.56355,2.19291,16.95757,4.36778,0.65427,0.02386,0.26001,0.0838,0,0,0,0,-0,0,0,0,-0,0,-0,0,-0,0,0,0,0,0,0,0,-0,0,-0,0,-0,0,-0,0,-0,0,0,0,0,0,0,0,0,0,0,0,0,0,0,0,0,0,0,0,0,0,0,0,0,0,0,0,0,0,0,0,0,0,0,0,0,0,0,0,0,0.43475,2.08493,0.5025,0.36097,0.31544,class1
0.85545,0.51673,5.17027,114.64758,4.82357,0.13211,0.08705,119.50749,0.06963,2.34545,10.59085,1.54638,0,0,12.41791,0.86744,1.05948,0.09606,3.72155,0.39066,31.69345,2.59682,17.32053,4.86389,0.65613,0.0286,0.26664,0.09111,0,0,0,0,-0,0,0,0,-0,0,-0,0,-0,0,0,0,0,0,0,0,-0,0,-0,0,-0,0,-0,0,-0,0,0,0,0,0,0,0,0,0,0,0,0,0,0,0,0,0,0,0,0,0,0,0,0,0,0,0,0,0,0,0,0,0,0,0,0,0,0,0,0,0.5217,2.27395,0.53088,0.35013,0.30969,class1
0.8081,0.59068,3.45112,149.60128,4.1153,0.44313,0.59888,86.22184,0.21888,2.3699,10.73905,1.96016,0,0,12.42124,0.83769,1.05445,0.08188,3.69932,0.33644,31.79779,2.87627,17.47705,5.05478,0.65795,0.02848,0.26228,0.09639,0,0,0,0,-0,0,0,0,-0,0,-0,0,-0,0,0,0,0,0,0,0,-0,0,-0,0,-0,0,-0,0,-0,0,0,0,0,0,0,0,0,0,0,0,0,0,0,0,0,0,0,0,0,0,0,0,0,0,0,0,0,0,0,0,0,0,0,0,0,0,0,0,0,0.67821,2.57212,0.64441,0.39519,0.45291,class1
0.87006,0.49345,4.36423,97.94977,4.75017,0.6603,0.92336,130.05018,0.06676,2.17343,10.56575,1.58971,0,0,12.36724,0.85489,1.04949,0.09063,3.67492,0.36807,31.61519,2.36264,17.13794,4.62454,0.65535,0.0282,0.25555,0.09534,0,0,0,0,-0,0,0,0,-0,0,-0,0,-0,0,0,0,0,0,0,0,-0,0,-0,0,-0,0,-0,0,-0,0,0,0,0,0,0,0,0,0,0,0,0,0,0,0,0,0,0,0,0,0,0,0,0,0,0,0,0,0,0,0,0,0,0,0,0,0,0,0,0,0.41736,2.13148,0.54257,0.30804,0.28528,class1
0.90876,0.41853,2.96774,92.62684,4.65786,0.18123,0.62783,120.57575,0.06718,3.343,10.50729,1.47075,0,0,12.32993,0.74165,1.0562,0.08812,3.70152,0.37165,31.56355,2.19291,16.90531,4.2891,0.6539,0.02463,0.25634,0.08554,0,0,0,0,-0,0,0,0,-0,0,-0,0,-0,0,0,0,0,0,0,0,-0,0,-0,0,-0,0,-0,0,-0,0,0,0,0,0,0,0,0,0,0,0,0,0,0,0,0,0,0,0,0,0,0,0,0,0,0,0,0,0,0,0,0,0,0,0,0,0,0,0,0,0.38258,1.96094,0.45242,0.34134,0.30656,class1
0.87786,0.47905,3.30091,92.06056,4.79851,0.07965,0.06567,130.26471,0.06182,2.18925,10.55594,1.65218,0,0,12.35616,0.82151,1.05158,0.09343,3.68268,0.36751,31.66806,2.5235,17.00982,4.44445,0.65476,0.02683,0.25628,0.09294,0,0,0,0,-0,0,0,0,-0,0,-0,0,-0,0,0,0,0,0,0,0,-0,0,-0,0,-0,0,-0,0,-0,0,0,0,0,0,0,0,0,0,0,0,0,0,0,0,0,0,0,0,0,0,0,0,0,0,0,0,0,0,0,0,0,0,0,0,0,0,0,0,0,0.45214,2.36677,0.51252,0.32378,0.29974,class1
0.90885,0.41874,3.89668,129.55397,4.79164,0.2131,0.23291,106.93895,0.06581,1.85595,10.31781,0.9276,0,0,12.19103,0.57862,1.04191,0.06247,3.62414,0.29135,31.4073,1.56113,16.38528,3.36457,0.6507,0.01854,0.2376,0.0722,0,0,0,0,-0,0,0,0,-0,0,-0,0,-0,0,0,0,0,0,0,0,-0,0,-0,0,-0,0,-0,0,-0,0,0,0,0,0,0,0,0,0,0,0,0,0,0,0,0,0,0,0,0,0,0,0,0,0,0,0,0,0,0,0,0,0,0,0,0,0,0,0,0,0.27824,1.78565,0.47746,0.27307,0.25858,class1
0.89441,0.44705,4.64653,104.2067,4.93783,0.35182,0.24316,105.19267,0.06619,2.67205,10.45384,1.05982,0,0,12.35668,0.76738,1.0624,0.08951,3.72547,0.40824,31.45868,1.79513,16.98143,4.40303,0.65381,0.02354,0.25917,0.08451,0,0,0,0,-0,0,0,0,-0,0,-0,0,-0,0,0,0,0,0,0,0,-0,0,-0,0,-0,0,-0,0,-0,0,0,0,0,0,0,0,0,0,0,0,0,0,0,0,0,0,0,0,0,0,0,0,0,0,0,0,0,0,0,0,0,0,0,0,0,0,0,0,0,0.45214,2.12436,0.46077,0.34818,0.31837,class1
0.86656,0.49935,3.89616,142.18004,4.7853,0.18087,0.12085,110.33026,0.0768,1.32626,10.42257,1.16382,0,0,12.29779,0.71546,1.05189,0.07765,3.67765,0.34054,31.45868,1.79513,16.72058,3.99308,0.65277,0.02213,0.25024,0.08466,0,0,0,0,-0,0,0,0,-0,0,-0,0,-0,0,0,0,0,0,0,0,-0,0,-0,0,-0,0,-0,0,-0,0,0,0,0,0,0,0,0,0,0,0,0,0,0,0,0,0,0,0,0,0,0,0,0,0,0,0,0,0,0,0,0,0,0,0,0,0,0,0,0,0.36519,1.91751,0.54591,0.30918,0.30393,class1
0.8866,0.46353,3.96887,102.9405,4.81857,0.41576,0.21657,108.62602,0.06697,2.59025,10.52454,1.47848,0,0,12.34059,0.8112,1.04959,0.0867,3.67061,0.37954,31.56302,2.37013,17.11185,4.58874,0.65435,0.02628,0.25384,0.08965,0,0,0,0,-0,0,0,0,-0,0,-0,0,-0,0,0,0,0,0,0,0,-0,0,-0,0,-0,0,-0,0,-0,0,0,0,0,0,0,0,0,0,0,0,0,0,0,0,0,0,0,0,0,0,0,0,0,0,0,0,0,0,0,0,0,0,0,0,0,0,0,0,0,0.46953,2.16294,0.47579,0.29554,0.25835,class1
0.8783,0.4792,4.17938,115.47676,4.81124,0.09631,0.44644,119.76872,0.06581,2.38268,10.56543,1.60457,0,0,12.37712,0.80929,1.05487,0.08156,3.69936,0.3305,31.64128,2.44348,17.11185,4.58874,0.65498,0.02499,0.26221,0.08899,0,0,0,0,-0,0,0,0,-0,0,-0,0,-0,0,0,0,0,0,0,0,-0,0,-0,0,-0,0,-0,0,-0,0,0,0,0,0,0,0,0,0,0,0,0,0,0,0,0,0,0,0,0,0,0,0,0,0,0,0,0,0,0,0,0,0,0,0,0,0,0,0,0,0.43475,2.08493,0.51419,0.35817,0.31012,class1
0.82119,0.5698,4.16301,96.40478,4.87201,0.17239,0.07435,120.4703,0.07122,2.14801,10.58211,1.47505,0,0,12.38411,0.83389,1.05469,0.08843,3.68981,0.37009,31.69493,2.60105,17.4309,4.99978,0.65629,0.02805,0.25788,0.09091,0,0,0,0,-0,0,0,0,-0,0,-0,0,-0,0,0,0,0,0,0,0,-0,0,-0,0,-0,0,-0,0,-0,0,0,0,0,0,0,0,0,0,0,0,0,0,0,0,0,0,0,0,0,0,0,0,0,0,0,0,0,0,0,0,0,0,0,0,0,0,0,0,0,0.50431,2.2377,0.59265,0.2859,0.28428,class1
0.90608,0.42419,3.89279,120.92961,4.5375,0.31569,0.30885,126.19134,0.06836,2.35149,10.47603,1.51444,0,0,12.27955,0.73996,1.04014,0.08982,3.63477,0.32984,31.56355,2.19291,16.93144,4.3287,0.6532,0.02478,0.24607,0.08699,0,0,0,0,-0,0,0,0,-0,0,-0,0,-0,0,0,0,0,0,0,0,-0,0,-0,0,-0,0,-0,0,-0,0,0,0,0,0,0,0,0,0,0,0,0,0,0,0,0,0,0,0,0,0,0,0,0,0,0,0,0,0,0,0,0,0,0,0,0,0,0,0,0,0.45214,2.28882,0.45075,0.28592,0.26964,class1
0.8408,0.54213,3.37681,189.38834,4.0207,0.19562,0.72963,140.55799,0.2224,3.66949,10.73148,1.93643,0,0,12.43314,0.89759,1.04997,0.08646,3.67839,0.35867,31.7717,2.80938,17.47705,5.05478,0.65768,0.02902,0.25594,0.10546,0,0,0,0,-0,0,0,0,-0,0,-0,0,-0,0,0,0,0,0,0,0,-0,0,-0,0,-0,0,-0,0,-0,0,0,0,0,0,0,0,0,0,0,0,0,0,0,0,0,0,0,0,0,0,0,0,0,0,0,0,0,0,0,0,0,0,0,0,0,0,0,0,0,0.67821,2.57212,0.66611,0.3979,0.47904,class1
0.89015,0.45659,3.83067,106.46995,4.91506,0.3274,0.12836,109.06142,0.06846,2.89541,10.73278,2.00737,0,0,12.43155,0.88059,1.05687,0.0996,3.71875,0.39629,31.90322,3.12989,17.58466,5.17921,0.65749,0.03093,0.26909,0.09387,0,0,0,0,-0,0,0,0,-0,0,-0,0,-0,0,0,0,0,0,0,0,-0,0,-0,0,-0,0,-0,0,-0,0,0,0,0,0,0,0,0,0,0,0,0,0,0,0,0,0,0,0,0,0,0,0,0,0,0,0,0,0,0,0,0,0,0,0,0,0,0,0,0,0.59126,2.48637,0.45409,0.38566,0.32154,class1
0.8886,0.4587,4.02687,95.06148,4.64604,0.08186,0.25971,110.03239,0.06337,2.16561,10.4258,1.28183,0,0,12.27369,0.68978,1.04725,0.07555,3.6602,0.32268,31.51085,2.00361,16.69449,3.9488,0.65257,0.02212,0.25002,0.08087,0,0,0,0,-0,0,0,0,-0,0,-0,0,-0,0,0,0,0,0,0,0,-0,0,-0,0,-0,0,-0,0,-0,0,0,0,0,0,0,0,0,0,0,0,0,0,0,0,0,0,0,0,0,0,0,0,0,0,0,0,0,0,0,0,0,0,0,0,0,0,0,0,0,0.36519,1.91751,0.50417,0.29936,0.28251,class1
0.9015,0.4331,3.70362,109.88345,4.76696,0.1658,0.63245,112.80311,0.0689,2.78996,10.45259,1.50825,0,0,12.25505,0.70674,1.04059,0.08217,3.63117,0.32576,31.56302,2.19112,16.64232,3.85818,0.65255,0.02374,0.24429,0.08433,0,0,0,0,-0,0,0,0,-0,0,-0,0,-0,0,0,0,0,0,0,0,-0,0,-0,0,-0,0,-0,0,-0,0,0,0,0,0,0,0,0,0,0,0,0,0,0,0,0,0,0,0,0,0,0,0,0,0,0,0,0,0,0,0,0,0,0,0,0,0,0,0,0,0.36519,1.91751,0.47412,0.26948,0.24886,class1
0.88029,0.47369,4.36939,117.40909,4.83789,0.14801,0.58315,107.16317,0.0605,3.12289,10.74407,1.89933,0,0,12.47736,0.93241,1.05613,0.08979,3.71716,0.34767,31.92821,3.18654,17.68573,5.29141,0.65854,0.03114,0.27474,0.09515,0,0,0,0,-0,0,0,0,-0,0,-0,0,-0,0,0,0,0,0,0,0,-0,0,-0,0,-0,0,-0,0,-0,0,0,0,0,0,0,0,0,0,0,0,0,0,0,0,0,0,0,0,0,0,0,0,0,0,0,0,0,0,0,0,0,0,0,0,0,0,0,0,0,0.74777,2.75774,0.47913,0.37887,0.31756,class1
0.84978,0.52795,3.56241,139.24795,4.88966,0.27959,0.23453,111.93169,0.06914,2.07062,10.57796,1.679,0,0,12.36015,0.80956,1.05146,0.09639,3.68615,0.38169,31.69419,2.59893,17.14047,4.628,0.65518,0.02777,0.25691,0.0926,0,0,0,0,-0,0,0,0,-0,0,-0,0,-0,0,0,0,0,0,0,0,-0,0,-0,0,-0,0,-0,0,-0,0,0,0,0,0,0,0,0,0,0,0,0,0,0,0,0,0,0,0,0,0,0,0,0,0,0,0,0,0,0,0,0,0,0,0,0,0,0,0,0,0.41736,2.04458,0.5576,0.30114,0.29548,class1
0.87349,0.48758,5.10122,104.30096,4.83851,0.05687,0.56689,120.68886,0.06777,1.72116,10.41361,1.32079,0,0,12.23731,0.67274,1.04123,0.07255,3.6286,0.3016,31.51085,2.00361,16.64232,3.85818,0.65235,0.02356,0.24245,0.08039,0,0,0,0,-0,0,0,0,-0,0,-0,0,-0,0,0,0,0,0,0,0,-0,0,-0,0,-0,0,-0,0,-0,0,0,0,0,0,0,0,0,0,0,0,0,0,0,0,0,0,0,0,0,0,0,0,0,0,0,0,0,0,0,0,0,0,0,0,0,0,0,0,0,0.29563,1.83303,0.61603,0.28837,0.28736,class1
0.86506,0.50194,3.90735,107.24944,4.87122,0.25792,0.05505,124.32521,0.06634,1.93024,10.68772,1.76096,0,0,12.48459,0.89507,1.06721,0.10285,3.75932,0.41858,31.77258,2.81165,17.58466,5.17921,0.6574,0.02869,0.27487,0.09464,0,0,0,0,-0,0,0,0,-0,0,-0,0,-0,0,0,0,0,0,0,0,-0,0,-0,0,-0,0,-0,0,-0,0,0,0,0,0,0,0,0,0,0,0,0,0,0,0,0,0,0,0,0,0,0,0,0,0,0,0,0,0,0,0,0,0,0,0,0,0,0,0,0,0.64343,2.50977,0.51085,0.40195,0.33829,class1
0.89332,0.44988,4.0331,102.57287,4.6322,0.2725,0.30746,110.82948,0.06462,2.17001,10.48426,1.40591,0,0,12.31338,0.76442,1.04855,0.08402,3.66739,0.35154,31.56302,2.19112,16.851,4.20508,0.65389,0.0263,0.25216,0.08682,0,0,0,0,-0,0,0,0,-0,0,-0,0,-0,0,0,0,0,0,0,0,-0,0,-0,0,-0,0,-0,0,-0,0,0,0,0,0,0,0,0,0,0,0,0,0,0,0,0,0,0,0,0,0,0,0,0,0,0,0,0,0,0,0,0,0,0,0,0,0,0,0,0,0.41736,2.13148,0.51419,0.31958,0.28859,class1
0.91663,0.4,3.70064,98.89095,4.81167,0.16653,0.29079,112.93167,0.06667,2.22713,10.38798,1.29296,0,0,12.23064,0.65856,1.04227,0.07335,3.63476,0.31779,31.51085,2.00361,16.56407,3.71673,0.65146,0.02117,0.24268,0.07997,0,0,0,0,-0,0,0,0,-0,0,-0,0,-0,0,0,0,0,0,0,0,-0,0,-0,0,-0,0,-0,0,-0,0,0,0,0,0,0,0,0,0,0,0,0,0,0,0,0,0,0,0,0,0,0,0,0,0,0,0,0,0,0,0,0,0,0,0,0,0,0,0,0,0.29563,1.83303,0.46411,0.29603,0.27503,class1
0.91533,0.40191,4.63476,104.8992,4.68205,0.24579,0.63163,137.86795,0.06332,2.34067,10.46366,1.41553,0,0,12.30335,0.76688,1.0501,0.08781,3.67702,0.36453,31.58911,2.45127,16.79883,4.12209,0.65322,0.02588,0.25474,0.08421,0,0,0,0,-0,0,0,0,-0,0,-0,0,-0,0,0,0,0,0,0,0,-0,0,-0,0,-0,0,-0,0,-0,0,0,0,0,0,0,0,0,0,0,0,0,0,0,0,0,0,0,0,0,0,0,0,0,0,0,0,0,0,0,0,0,0,0,0,0,0,0,0,0,0.36519,1.91751,0.4424,0.33587,0.27297,class1
0.85786,0.51562,4.08405,148.20538,4.11886,0.1079,0.17978,142.33132,0.216,4.6389,10.67583,1.88687,0,0,12.39916,0.89105,1.0416,0.09007,3.64553,0.35896,31.7717,2.80938,17.32053,4.86389,0.65673,0.02868,0.24808,0.1097,0,0,0,0,-0,0,0,0,-0,0,-0,0,-0,0,0,0,0,0,0,0,-0,0,-0,0,-0,0,-0,0,-0,0,0,0,0,0,0,0,0,0,0,0,0,0,0,0,0,0,0,0,0,0,0,0,0,0,0,0,0,0,0,0,0,0,0,0,0,0,0,0,0,0.55648,2.3444,0.69282,0.37723,0.48135,class1
0.80683,0.59234,4.63982,97.82118,4.60153,0.43109,0.06572,92.13996,0.064,1.89232,10.76682,2.07981,0,0,12.45075,0.91289,1.05772,0.1005,3.72267,0.40223,31.82387,3.07708,17.79007,5.40281,0.6583,0.03348,0.27095,0.09582,0,0,0,0,-0,0,0,0,-0,0,-0,0,-0,0,0,0,0,0,0,0,-0,0,-0,0,-0,0,-0,0,-0,0,0,0,0,0,0,0,0,0,0,0,0,0,0,0,0,0,0,0,0,0,0,0,0,0,0,0,0,0,0,0,0,0,0,0,0,0,0,0,0,0.67821,2.64172,0.56928,0.31602,0.30603,class1
0.81319,0.58331,4.28814,112.73173,4.54427,0.14275,0.04567,107.19402,0.06218,1.50532,10.80926,2.0108,0,0,12.5535,0.98673,1.07007,0.1003,3.78516,0.3806,31.9543,3.24441,17.89441,5.58359,0.66,0.03395,0.28643,0.09778,0,0,0,0,-0,0,0,0,-0,0,-0,0,-0,0,0,0,0,0,0,0,-0,0,-0,0,-0,0,-0,0,-0,0,0,0,0,0,0,0,0,0,0,0,0,0,0,0,0,0,0,0,0,0,0,0,0,0,0,0,0,0,0,0,0,0,0,0,0,0,0,0,0,0.67821,2.70954,0.61102,0.44884,0.39677,class1
0.84682,0.53289,5.03478,94.53658,4.81264,0.24787,0.33452,87.55579,0.0659,1.88197,10.55583,1.65377,0,0,12.36175,0.73597,1.06106,0.08431,3.729,0.34497,31.56407,2.19472,16.98597,4.40971,0.65432,0.02324,0.26563,0.08169,0,0,0,0,-0,0,0,0,-0,0,-0,0,-0,0,0,0,0,0,0,0,-0,0,-0,0,-0,0,-0,0,-0,0,0,0,0,0,0,0,0,0,0,0,0,0,0,0,0,0,0,0,0,0,0,0,0,0,0,0,0,0,0,0,0,0,0,0,0,0,0,0,0,0.48692,2.35985,0.59098,0.34362,0.26243,class1
0.84023,0.54236,6.07754,116.09935,4.75156,0.41777,0.1363,139.0223,0.06909,1.97621,10.63361,1.68902,0,0,12.41372,0.868,1.05822,0.09109,3.71447,0.38191,31.7717,2.80938,17.34662,4.89657,0.65674,0.02977,0.26551,0.09202,0,0,0,0,-0,0,0,0,-0,0,-0,0,-0,0,0,0,0,0,0,0,-0,0,-0,0,-0,0,-0,0,-0,0,0,0,0,0,0,0,0,0,0,0,0,0,0,0,0,0,0,0,0,0,0,0,0,0,0,0,0,0,0,0,0,0,0,0,0,0,0,0,0,0.62604,2.62019,0.53923,0.32358,0.29861,class1
0.89051,0.45503,5.45451,79.95616,4.94712,0.21844,0.51778,127.47993,0.06282,2.67962,10.48646,1.46923,0,0,12.31742,0.79946,1.04812,0.09205,3.66309,0.38874,31.58911,2.27864,16.98143,4.40303,0.65354,0.0257,0.25012,0.08988,0,0,0,0,-0,0,0,0,-0,0,-0,0,-0,0,0,0,0,0,0,0,-0,0,-0,0,-0,0,-0,0,-0,0,0,0,0,0,0,0,0,0,0,0,0,0,0,0,0,0,0,0,0,0,0,0,0,0,0,0,0,0,0,0,0,0,0,0,0,0,0,0,0,0.46953,2.32467,0.54424,0.28425,0.25832,class1
0.90968,0.41527,5.96398,103.46897,4.78301,0.28619,0.7856,116.99052,0.06018,3.79385,10.4616,1.32764,0,0,12.3227,0.7586,1.05366,0.08991,3.68773,0.36646,31.48477,1.90241,16.82492,4.16387,0.65342,0.02447,0.25356,0.08695,0,0,0,0,-0,0,0,0,-0,0,-0,0,-0,0,0,0,0,0,0,0,-0,0,-0,0,-0,0,-0,0,-0,0,0,0,0,0,0,0,0,0,0,0,0,0,0,0,0,0,0,0,0,0,0,0,0,0,0,0,0,0,0,0,0,0,0,0,0,0,0,0,0,0.3478,1.87292,0.43573,0.33255,0.28537,class1
0.86402,0.5048,3.778,98.5052,4.78364,0.19763,0.10831,120.99153,0.0634,2.05962,10.53315,1.52619,0,0,12.33707,0.74835,1.05684,0.09118,3.70765,0.3885,31.56302,2.37013,17.00751,4.4411,0.65443,0.02631,0.25812,0.08557,0,0,0,0,-0,0,0,0,-0,0,-0,0,-0,0,0,0,0,0,0,0,-0,0,-0,0,-0,0,-0,0,-0,0,0,0,0,0,0,0,0,0,0,0,0,0,0,0,0,0,0,0,0,0,0,0,0,0,0,0,0,0,0,0,0,0,0,0,0,0,0,0,0,0.43475,2.17021,0.56427,0.32519,0.26782,class1
0.89423,0.44935,4.57129,121.28231,4.8838,0.05854,0.39303,118.3872,0.06386,2.50154,10.45155,1.33205,0,0,12.2897,0.72607,1.04755,0.08151,3.65718,0.34635,31.51129,2.00526,16.77467,4.08285,0.65317,0.02395,0.24759,0.08561,0,0,0,0,-0,0,0,0,-0,0,-0,0,-0,0,0,0,0,0,0,0,-0,0,-0,0,-0,0,-0,0,-0,0,0,0,0,0,0,0,0,0,0,0,0,0,0,0,0,0,0,0,0,0,0,0,0,0,0,0,0,0,0,0,0,0,0,0,0,0,0,0,0,0.43475,2.17021,0.4424,0.28569,0.28373,class1
0.87174,0.49215,4.90359,122.04181,4.84979,0.09175,0.15844,103.23217,0.06619,2.05374,10.56672,1.56295,0,0,12.38711,0.8051,1.0613,0.09263,3.7299,0.38247,31.61703,2.36845,16.96204,4.37443,0.65523,0.02644,0.26474,0.08891,0,0,0,0,-0,0,0,0,-0,0,-0,0,-0,0,0,0,0,0,0,0,-0,0,-0,0,-0,0,-0,0,-0,0,0,0,0,0,0,0,0,0,0,0,0,0,0,0,0,0,0,0,0,0,0,0,0,0,0,0,0,0,0,0,0,0,0,0,0,0,0,0,0,0.39997,2.00327,0.4975,0.35725,0.29601,class1
0.87536,0.48484,4.90721,101.24848,4.82694,0.09769,0.07298,124.34061,0.06967,2.22484,10.45415,1.24655,0,0,12.33332,0.70935,1.06369,0.09116,3.7298,0.38152,31.51129,2.00526,16.77467,4.08285,0.65324,0.02209,0.25907,0.08139,0,0,0,0,-0,0,0,0,-0,0,-0,0,-0,0,0,0,0,0,0,0,-0,0,-0,0,-0,0,-0,0,-0,0,0,0,0,0,0,0,0,0,0,0,0,0,0,0,0,0,0,0,0,0,0,0,0,0,0,0,0,0,0,0,0,0,0,0,0,0,0,0,0,0.27824,1.68097,0.51586,0.33755,0.29549,class1
0.88018,0.47044,3.93619,193.00965,4.52136,0.65573,0.37475,59.86403,0.13191,4.24056,10.77973,1.81939,0,0,12.52592,1.00361,1.05134,0.08617,3.69522,0.33509,31.92821,3.18654,17.86832,5.48358,0.66021,0.03216,0.27459,0.10337,0,0,0,0,-0,0,0,0,-0,0,-0,0,-0,0,0,0,0,0,0,0,-0,0,-0,0,-0,0,-0,0,-0,0,0,0,0,0,0,0,0,0,0,0,0,0,0,0,0,0,0,0,0,0,0,0,0,0,0,0,0,0,0,0,0,0,0,0,0,0,0,0,0,0.8695,2.88361,0.51419,0.47646,0.56974,class1
0.87283,0.48854,3.97174,213.42421,4.15338,0.59429,0.95775,138.2995,0.20035,5.35493,10.59167,1.45301,0,0,12.40225,0.89872,1.04388,0.08201,3.63977,0.362,31.51085,2.00361,17.11185,4.58874,0.65642,0.02651,0.2438,0.10726,0,0,0,0,-0,0,0,0,-0,0,-0,0,-0,0,0,0,0,0,0,0,-0,0,-0,0,-0,0,-0,0,-0,0,0,0,0,0,0,0,0,0,0,0,0,0,0,0,0,0,0,0,0,0,0,0,0,0,0,0,0,0,0,0,0,0,0,0,0,0,0,0,0,0.76516,2.7198,0.65442,0.36416,0.48142,class1
0.88933,0.45943,4.76785,82.59346,4.91866,0.69991,0.51151,116.41494,0.06989,2.01191,10.47865,1.50016,0,0,12.27809,0.69369,1.04709,0.07645,3.65574,0.32915,31.56302,2.19112,16.79883,4.12209,0.65304,0.02292,0.24872,0.08069,0,0,0,0,-0,0,0,0,-0,0,-0,0,-0,0,0,0,0,0,0,0,-0,0,-0,0,-0,0,-0,0,-0,0,0,0,0,0,0,0,0,0,0,0,0,0,0,0,0,0,0,0,0,0,0,0,0,0,0,0,0,0,0,0,0,0,0,0,0,0,0,0,0,0.43475,2.17021,0.49917,0.2836,0.25923,class1
0.89043,0.45636,4.10707,121.63519,4.87466,0.05689,0.54374,111.70048,0.06436,3.33246,10.53664,1.54649,0,0,12.3518,0.75352,1.05954,0.09449,3.72203,0.38363,31.58967,2.28051,16.87918,4.24898,0.65458,0.02623,0.26179,0.08476,0,0,0,0,-0,0,0,0,-0,0,-0,0,-0,0,0,0,0,0,0,0,-0,0,-0,0,-0,0,-0,0,-0,0,0,0,0,0,0,0,0,0,0,0,0,0,0,0,0,0,0,0,0,0,0,0,0,0,0,0,0,0,0,0,0,0,0,0,0,0,0,0,0,0.33041,1.82707,0.44741,0.35636,0.30105,class1
0.86507,0.50244,3.43293,137.99076,4.75118,0.14083,0.17299,138.47119,0.06512,2.29336,10.58811,1.7561,0,0,12.34248,0.84986,1.03964,0.08672,3.63805,0.32056,31.77258,2.81165,17.03595,4.48207,0.65541,0.02909,0.2534,0.09512,0,0,0,0,-0,0,0,0,-0,0,-0,0,-0,0,0,0,0,0,0,0,-0,0,-0,0,-0,0,-0,0,-0,0,0,0,0,0,0,0,0,0,0,0,0,0,0,0,0,0,0,0,0,0,0,0,0,0,0,0,0,0,0,0,0,0,0,0,0,0,0,0,0,0.60865,2.58949,0.56093,0.29334,0.27819,class1
0.90315,0.4317,3.82855,106.45145,4.81755,0.34169,0.33207,107.47097,0.06257,2.63806,10.44637,1.36134,0,0,12.27269,0.77678,1.03964,0.0803,3.62062,0.34113,31.61519,2.36264,16.87709,4.24573,0.65317,0.02576,0.24319,0.08651,0,0,0,0,-0,0,0,0,-0,0,-0,0,-0,0,0,0,0,0,0,0,-0,0,-0,0,-0,0,-0,0,-0,0,0,0,0,0,0,0,0,0,0,0,0,0,0,0,0,0,0,0,0,0,0,0,0,0,0,0,0,0,0,0,0,0,0,0,0,0,0,0,0,0.41736,2.21497,0.48748,0.25682,0.24366,class1
0.89075,0.45622,3.30969,127.08514,4.83891,0.10594,0.05169,131.55433,0.06282,3.35381,10.61799,1.8154,0,0,12.37634,0.82213,1.05086,0.09429,3.69105,0.36375,31.7717,2.80938,17.21619,4.72947,0.65576,0.02825,0.2628,0.09013,0,0,0,0,-0,0,0,0,-0,0,-0,0,-0,0,0,0,0,0,0,0,-0,0,-0,0,-0,0,-0,0,-0,0,0,0,0,0,0,0,0,0,0,0,0,0,0,0,0,0,0,0,0,0,0,0,0,0,0,0,0,0,0,0,0,0,0,0,0,0,0,0,0,0.5217,2.3524,0.48748,0.34147,0.29045,class1
0.86248,0.50871,3.90293,90.40037,4.66945,0.20468,0.22974,121.34953,0.0609,1.73195,10.49982,1.50768,0,0,12.33915,0.72187,1.06076,0.08327,3.72227,0.35175,31.51085,2.00361,16.90317,4.28583,0.65339,0.02188,0.26017,0.08384,0,0,0,0,-0,0,0,0,-0,0,-0,0,-0,0,0,0,0,0,0,0,-0,0,-0,0,-0,0,-0,0,-0,0,0,0,0,0,0,0,0,0,0,0,0,0,0,0,0,0,0,0,0,0,0,0,0,0,0,0,0,0,0,0,0,0,0,0,0,0,0,0,0,0.29563,1.73121,0.53589,0.33997,0.30523,class1
0.89794,0.44076,5.5097,86.7714,4.7322,0.12932,0.22825,102.88086,0.06125,2.86113,10.4289,1.3005,0,0,12.27105,0.70844,1.04588,0.07927,3.65046,0.33296,31.56302,2.19112,16.64232,3.85818,0.65261,0.02339,0.24662,0.08299,0,0,0,0,-0,0,0,0,-0,0,-0,0,-0,0,0,0,0,0,0,0,-0,0,-0,0,-0,0,-0,0,-0,0,0,0,0,0,0,0,0,0,0,0,0,0,0,0,0,0,0,0,0,0,0,0,0,0,0,0,0,0,0,0,0,0,0,0,0,0,0,0,0,0.31302,1.77987,0.4975,0.27712,0.27151,class1
0.89079,0.45366,3.97188,117.15917,4.79244,0.22476,1.004,116.64146,0.06331,1.88579,10.44761,1.17873,0,0,12.33513,0.73116,1.06013,0.09125,3.71584,0.39419,31.51085,2.00361,16.90317,4.28583,0.65338,0.02301,0.258,0.08328,0,0,0,0,-0,0,0,0,-0,0,-0,0,-0,0,0,0,0,0,0,0,-0,0,-0,0,-0,0,-0,0,-0,0,0,0,0,0,0,0,0,0,0,0,0,0,0,0,0,0,0,0,0,0,0,0,0,0,0,0,0,0,0,0,0,0,0,0,0,0,0,0,0,0.36519,1.91751,0.47245,0.32063,0.27521,class1
0.86038,0.51257,4.17131,123.55335,4.78003,0.50937,0.01177,143.98513,0.06456,1.96077,10.56982,1.67636,0,0,12.3525,0.79492,1.05055,0.08511,3.683,0.34774,31.66736,2.52145,17.13794,4.62454,0.65499,0.02655,0.25984,0.08757,0,0,0,0,-0,0,0,0,-0,0,-0,0,-0,0,0,0,0,0,0,0,-0,0,-0,0,-0,0,-0,0,-0,0,0,0,0,0,0,0,0,0,0,0,0,0,0,0,0,0,0,0,0,0,0,0,0,0,0,0,0,0,0,0,0,0,0,0,0,0,0,0,0,0.5217,2.3524,0.51419,0.30501,0.27965,class1
0.89856,0.44088,3.90653,136.1825,4.64153,0.20571,0.41355,114.08323,0.06516,2.09841,10.47335,1.58062,0,0,12.25917,0.73605,1.0382,0.07908,3.61572,0.31797,31.53694,2.09962,16.92926,4.32541,0.65295,0.0251,0.24198,0.0861,0,0,0,0,-0,0,0,0,-0,0,-0,0,-0,0,0,0,0,0,0,0,-0,0,-0,0,-0,0,-0,0,-0,0,0,0,0,0,0,0,0,0,0,0,0,0,0,0,0,0,0,0,0,0,0,0,0,0,0,0,0,0,0,0,0,0,0,0,0,0,0,0,0,0.29563,1.83303,0.5192,0.26416,0.27405,class1
0.83794,0.5453,0.81763,144.48039,4.19269,0.59544,0.59469,124.87271,0.21357,3.02027,10.68039,1.87857,0,0,12.40256,0.86693,1.04683,0.0827,3.65951,0.35397,31.69345,2.59682,17.32053,4.86389,0.65656,0.02628,0.25049,0.10365,0,0,0,0,-0,0,0,0,-0,0,-0,0,-0,0,0,0,0,0,0,0,-0,0,-0,0,-0,0,-0,0,-0,0,0,0,0,0,0,0,0,0,0,0,0,0,0,0,0,0,0,0,0,0,0,0,0,0,0,0,0,0,0,0,0,0,0,0,0,0,0,0,0,0.6956,2.60256,0.6611,0.37886,0.47919,class1
0.86797,0.49772,3.10271,102.6842,4.83738,0.20321,0.02735,102.8904,0.064,1.98381,10.75002,1.9547,0,0,12.49579,0.97182,1.05948,0.10104,3.72888,0.40585,31.87604,3.32246,17.84224,5.45691,0.65852,0.03185,0.27494,0.09751,0,0,0,0,-0,0,0,0,-0,0,-0,0,-0,0,0,0,0,0,0,0,-0,0,-0,0,-0,0,-0,0,-0,0,0,0,0,0,0,0,0,0,0,0,0,0,0,0,0,0,0,0,0,0,0,0,0,0,0,0,0,0,0,0,0,0,0,0,0,0,0,0,0,0.6956,2.73845,0.49917,0.37018,0.30175,class1
0.89837,0.43971,3.30291,106.67579,4.79454,0.26551,0.44452,129.42858,0.06439,3.02664,10.47103,1.46108,0,0,12.29626,0.72529,1.05003,0.08633,3.67663,0.34119,31.61519,2.36264,16.61624,3.81179,0.65309,0.02421,0.25353,0.08283,0,0,0,0,-0,0,0,0,-0,0,-0,0,-0,0,0,0,0,0,0,0,-0,0,-0,0,-0,0,-0,0,-0,0,0,0,0,0,0,0,0,0,0,0,0,0,0,0,0,0,0,0,0,0,0,0,0,0,0,0,0,0,0,0,0,0,0,0,0,0,0,0,0,0.3478,2.05758,0.4975,0.32514,0.2774,class1
0.90105,0.43454,5.36413,109.45931,4.87588,0.29985,0.2846,120.261,0.06375,2.36824,10.36998,1.21496,0,0,12.21558,0.62834,1.04127,0.07297,3.62727,0.30428,31.45868,1.79513,16.38147,3.35654,0.65137,0.02116,0.24156,0.07602,0,0,0,0,-0,0,0,0,-0,0,-0,0,-0,0,0,0,0,0,0,0,-0,0,-0,0,-0,0,-0,0,-0,0,0,0,0,0,0,0,0,0,0,0,0,0,0,0,0,0,0,0,0,0,0,0,0,0,0,0,0,0,0,0,0,0,0,0,0,0,0,0,0,0.24346,1.57509,0.53255,0.27196,0.25722,class1
0.88734,0.46266,3.77056,133.90634,4.55865,0.24759,0.52693,136.10203,0.06436,1.63307,10.39881,1.23756,0,0,12.23932,0.68681,1.04358,0.08281,3.64103,0.36028,31.45868,2.00973,16.74666,4.03671,0.65204,0.02427,0.24152,0.08362,0,0,0,0,-0,0,0,0,-0,0,-0,0,-0,0,0,0,0,0,0,0,-0,0,-0,0,-0,0,-0,0,-0,0,0,0,0,0,0,0,0,0,0,0,0,0,0,0,0,0,0,0,0,0,0,0,0,0,0,0,0,0,0,0,0,0,0,0,0,0,0,0,0,0.3478,1.87292,0.49082,0.26173,0.25161,class1
0.85203,0.52526,3.29734,113.69488,4.84496,0.51027,0.19249,131.38052,0.06814,1.98389,10.59056,1.56778,0,0,12.40954,0.87382,1.05447,0.10432,3.70138,0.40527,31.66736,2.52145,17.26836,4.79743,0.65624,0.02974,0.26175,0.0971,0,0,0,0,-0,0,0,0,-0,0,-0,0,-0,0,0,0,0,0,0,0,-0,0,-0,0,-0,0,-0,0,-0,0,0,0,0,0,0,0,0,0,0,0,0,0,0,0,0,0,0,0,0,0,0,0,0,0,0,0,0,0,0,0,0,0,0,0,0,0,0,0,0,0.57387,2.37865,0.55259,0.32264,0.30838,class1
0.88383,0.47031,3.43362,129.14837,4.60195,0.25981,0.34888,117.05543,0.06614,1.94607,10.54083,1.66441,0,0,12.28984,0.76994,1.04172,0.073,3.63182,0.31443,31.69419,2.59893,17.08821,4.55592,0.65452,0.02739,0.24603,0.08811,0,0,0,0,-0,0,0,0,-0,0,-0,0,-0,0,0,0,0,0,0,0,-0,0,-0,0,-0,0,-0,0,-0,0,0,0,0,0,0,0,0,0,0,0,0,0,0,0,0,0,0,0,0,0,0,0,0,0,0,0,0,0,0,0,0,0,0,0,0,0,0,0,0,0.55648,2.49439,0.50083,0.27824,0.27922,class1
0.83232,0.55589,3.96292,105.18852,4.72036,0.4722,0.02818,86.92013,0.06777,1.65344,10.69731,1.72067,0,0,12.47323,0.90627,1.06204,0.09071,3.73254,0.37608,31.77258,2.81165,17.95046,5.56591,0.6582,0.03026,0.27157,0.09416,0,0,0,0,-0,0,0,0,-0,0,-0,0,-0,0,0,0,0,0,0,0,-0,0,-0,0,-0,0,-0,0,-0,0,0,0,0,0,0,0,0,0,0,0,0,0,0,0,0,0,0,0,0,0,0,0,0,0,0,0,0,0,0,0,0,0,0,0,0,0,0,0,0,0.73038,2.66205,0.54591,0.35207,0.31898,class1
0.83994,0.54407,5.23128,98.03052,4.69015,0.25006,0.12491,120.52191,0.06662,2.16223,10.63357,1.49388,0,0,12.47035,0.92751,1.05954,0.09489,3.72016,0.3894,31.74562,2.74061,17.63356,5.23404,0.6577,0.02967,0.2698,0.09672,0,0,0,0,-0,0,0,0,-0,0,-0,0,-0,0,0,0,0,0,0,0,-0,0,-0,0,-0,0,-0,0,-0,0,0,0,0,0,0,0,0,0,0,0,0,0,0,0,0,0,0,0,0,0,0,0,0,0,0,0,0,0,0,0,0,0,0,0,0,0,0,0,0,0.67821,2.64172,0.55092,0.35633,0.33271,class1
0.91226,0.41027,3.90803,119.00588,4.81475,0.28545,0.38934,127.96399,0.0664,2.34925,10.43466,1.32624,0,0,12.27075,0.76463,1.03863,0.07922,3.62069,0.32414,31.56302,2.19112,16.851,4.20508,0.65295,0.02575,0.24343,0.08767,0,0,0,0,-0,0,0,0,-0,0,-0,0,-0,0,0,0,0,0,0,0,-0,0,-0,0,-0,0,-0,0,-0,0,0,0,0,0,0,0,0,0,0,0,0,0,0,0,0,0,0,0,0,0,0,0,0,0,0,0,0,0,0,0,0,0,0,0,0,0,0,0,0,0.3478,1.87292,0.44073,0.27285,0.26312,class1
0.90549,0.42538,3.56328,104.74271,4.74549,0.08264,0.26785,119.17157,0.06562,2.06091,10.43031,1.22259,0,0,12.29299,0.74705,1.04695,0.07928,3.65414,0.33474,31.53694,2.09962,16.74666,4.03671,0.65301,0.02317,0.24914,0.08444,0,0,0,0,-0,0,0,0,-0,0,-0,0,-0,0,0,0,0,0,0,0,-0,0,-0,0,-0,0,-0,0,-0,0,0,0,0,0,0,0,0,0,0,0,0,0,0,0,0,0,0,0,0,0,0,0,0,0,0,0,0,0,0,0,0,0,0,0,0,0,0,0,0,0.39997,2.1769,0.45409,0.29016,0.26375,class1
0.8543,0.51879,3.35269,165.07715,4.14504,0.56266,0.54973,125.91221,0.21354,2.21703,10.64444,1.62911,0,0,12.41864,0.88549,1.04868,0.08212,3.6674,0.34995,31.69345,2.59682,17.32053,4.86389,0.6572,0.02757,0.25343,0.10326,0,0,0,0,-0,0,0,0,-0,0,-0,0,-0,0,0,0,0,0,0,0,-0,0,-0,0,-0,0,-0,0,-0,0,0,0,0,0,0,0,0,0,0,0,0,0,0,0,0,0,0,0,0,0,0,0,0,0,0,0,0,0,0,0,0,0,0,0,0,0,0,0,0,0.71299,2.63253,0.601,0.3825,0.45858,class1
0.87176,0.49241,6.10446,101.02674,4.86302,0.12392,0.09333,118.77941,0.0671,2.23253,10.56443,1.62433,0,0,12.37827,0.80218,1.05997,0.09556,3.72269,0.38763,31.66806,2.5235,17.06208,4.51922,0.65498,0.02701,0.26245,0.08973,0,0,0,0,-0,0,0,0,-0,0,-0,0,-0,0,0,0,0,0,0,0,-0,0,-0,0,-0,0,-0,0,-0,0,0,0,0,0,0,0,0,0,0,0,0,0,0,0,0,0,0,0,0,0,0,0,0,0,0,0,0,0,0,0,0,0,0,0,0,0,0,0,0,0.43475,2.08493,0.51252,0.34187,0.29743,class1
0.83708,0.54835,3.38507,209.17998,4.49139,0.12776,0.36053,70.96155,0.15482,3.08032,10.92416,2.21861,0,0,12.56523,0.97297,1.06111,0.09243,3.74087,0.36804,31.93049,3.31751,18.21608,5.81624,0.66106,0.03153,0.28282,0.09962,0,0,0,0,-0,0,0,0,-0,0,-0,0,-0,0,0,0,0,0,0,0,-0,0,-0,0,-0,0,-0,0,-0,0,0,0,0,0,0,0,0,0,0,0,0,0,0,0,0,0,0,0,0,0,0,0,0,0,0,0,0,0,0,0,0,0,0,0,0,0,0,0,0,0.88689,2.90965,0.57763,0.47827,0.49557,class1
0.79726,0.60312,3.48604,244.29207,4.4622,0.30432,0.2107,95.19732,0.104,2.67406,10.71049,1.81088,0,0,12.4479,0.84265,1.06154,0.09247,3.7302,0.3802,31.69793,2.60956,17.57483,5.16811,0.65779,0.02785,0.26847,0.09267,0,0,0,0,-0,0,0,0,-0,0,-0,0,-0,0,0,0,0,0,0,0,-0,0,-0,0,-0,0,-0,0,-0,0,0,0,0,0,0,0,0,0,0,0,0,0,0,0,0,0,0,0,0,0,0,0,0,0,0,0,0,0,0,0,0,0,0,0,0,0,0,0,0,0.71299,2.70058,0.56093,0.39314,0.46068,class1
0.84558,0.53247,3.35043,262.16095,4.39957,0.70696,0.35696,70.60211,0.15506,2.98458,10.82123,1.86975,0,0,12.55412,0.97947,1.05845,0.08391,3.72598,0.33288,31.79779,2.87627,17.84224,5.45691,0.66069,0.03061,0.27978,0.10083,0,0,0,0,-0,0,0,0,-0,0,-0,0,-0,0,0,0,0,0,0,0,-0,0,-0,0,-0,0,-0,0,-0,0,0,0,0,0,0,0,0,0,0,0,0,0,0,0,0,0,0,0,0,0,0,0,0,0,0,0,0,0,0,0,0,0,0,0,0,0,0,0,0,0.95646,3.01055,0.56928,0.45234,0.46328,class1
0.82214,0.56859,3.45323,187.29632,4.37717,0.21391,0.11191,70.40897,0.18094,1.49465,10.96575,2.3434,0,0,12.56713,0.96231,1.05832,0.09295,3.7396,0.33238,31.95548,3.247,18.15949,5.76484,0.66158,0.03229,0.28648,0.09991,0,0,0,0,-0,0,0,0,-0,0,-0,0,-0,0,0,0,0,0,0,0,-0,0,-0,0,-0,0,-0,0,-0,0,0,0,0,0,0,0,0,0,0,0,0,0,0,0,0,0,0,0,0,0,0,0,0,0,0,0,0,0,0,0,0,0,0,0,0,0,0,0,0,0.8695,2.88361,0.58765,0.48366,0.4839,class1
0.80478,0.59359,3.51585,255.2772,4.4223,0.62482,0.03699,74.25569,0.12412,1.94006,10.83424,1.88767,0,0,12.55206,0.95965,1.06067,0.08818,3.73737,0.34605,31.85603,3.01949,17.97007,5.58524,0.66092,0.03104,0.28118,0.09876,0,0,0,0,-0,0,0,0,-0,0,-0,0,-0,0,0,0,0,0,0,0,-0,0,-0,0,-0,0,-0,0,-0,0,0,0,0,0,0,0,0,0,0,0,0,0,0,0,0,0,0,0,0,0,0,0,0,0,0,0,0,0,0,0,0,0,0,0,0,0,0,0,0,1.00863,3.08303,0.60434,0.46381,0.50583,class1
0.79763,0.60329,3.44006,196.86446,4.43545,0.16772,0.12112,87.07969,0.10371,2.14871,10.72108,1.73172,0,0,12.48188,0.86476,1.06572,0.09397,3.75026,0.38601,31.72269,2.67851,17.43697,5.00709,0.65844,0.02813,0.27134,0.09614,0,0,0,0,-0,0,0,0,-0,0,-0,0,-0,0,0,0,0,0,0,0,-0,0,-0,0,-0,0,-0,0,-0,0,0,0,0,0,0,0,0,0,0,0,0,0,0,0,0,0,0,0,0,0,0,0,0,0,0,0,0,0,0,0,0,0,0,0,0,0,0,0,0,0.71299,2.63253,0.55593,0.40007,0.4514,class1
0.81591,0.57819,3.34462,245.24722,4.2712,0.26065,0.0602,76.63025,0.1475,1.57062,10.82004,1.93004,0,0,12.52145,0.92675,1.05971,0.08808,3.73343,0.34299,31.8258,2.94615,17.87584,5.49123,0.6604,0.03087,0.27899,0.0967,0,0,0,0,-0,0,0,0,-0,0,-0,0,-0,0,0,0,0,0,0,0,-0,0,-0,0,-0,0,-0,0,-0,0,0,0,0,0,0,0,0,0,0,0,0,0,0,0,0,0,0,0,0,0,0,0,0,0,0,0,0,0,0,0,0,0,0,0,0,0,0,0,0,0.83472,2.83049,0.58932,0.43033,0.43497,class1
0.80106,0.59897,3.38949,299.24205,4.44925,0.26531,0.08054,68.49123,0.146,2.05191,10.78287,1.85449,0,0,12.50324,0.95567,1.05431,0.08725,3.70475,0.34649,31.87604,3.06687,17.79007,5.40281,0.65998,0.03159,0.2732,0.09933,0,0,0,0,-0,0,0,0,-0,0,-0,0,-0,0,0,0,0,0,0,0,-0,0,-0,0,-0,0,-0,0,-0,0,0,0,0,0,0,0,0,0,0,0,0,0,0,0,0,0,0,0,0,0,0,0,0,0,0,0,0,0,0,0,0,0,0,0,0,0,0,0,0,0.81733,2.80339,0.59599,0.41691,0.481,class1
0.82219,0.57087,4.5008,226.4342,4.33186,0.25738,0.38053,70.4327,0.14187,2.56131,10.81889,1.84778,0,0,12.55014,0.98867,1.0568,0.08762,3.71719,0.33958,31.82483,2.94378,17.97659,5.59159,0.66097,0.03151,0.27783,0.10202,0,0,0,0,-0,0,0,0,-0,0,-0,0,-0,0,0,0,0,0,0,0,-0,0,-0,0,-0,0,-0,0,-0,0,0,0,0,0,0,0,0,0,0,0,0,0,0,0,0,0,0,0,0,0,0,0,0,0,0,0,0,0,0,0,0,0,0,0,0,0,0,0,0,0.95646,3.01055,0.58765,0.41236,0.43435,class1
0.83351,0.55364,3.33179,162.70007,4.17603,0.65073,0.05084,109.95566,0.22133,2.26826,10.69849,1.86906,0,0,12.3931,0.81612,1.0536,0.08382,3.68801,0.35898,31.79779,2.87627,17.19011,4.6949,0.65716,0.02835,0.25296,0.09942,0,0,0,0,-0,0,0,0,-0,0,-0,0,-0,0,0,0,0,0,0,0,-0,0,-0,0,-0,0,-0,0,-0,0,0,0,0,0,0,0,0,0,0,0,0,0,0,0,0,0,0,0,0,0,0,0,0,0,0,0,0,0,0,0,0,0,0,0,0,0,0,0,0,0.59126,2.41228,0.61937,0.38937,0.47029,class1
0.78871,0.61644,3.4133,288.88083,4.35907,0.15826,0.07033,74.97594,0.15079,1.94863,10.85509,1.95278,0,0,12.54114,0.96335,1.05873,0.09283,3.73343,0.35217,31.98529,3.31161,18.01471,5.62865,0.66158,0.03379,0.28006,0.10059,0,0,0,0,-0,0,0,0,-0,0,-0,0,-0,0,0,0,0,0,0,0,-0,0,-0,0,-0,0,-0,0,-0,0,0,0,0,0,0,0,0,0,0,0,0,0,0,0,0,0,0,0,0,0,0,0,0,0,0,0,0,0,0,0,0,0,0,0,0,0,0,0,0,0.95646,3.07023,0.60935,0.42791,0.45763,class1
0.83224,0.55423,3.35313,267.17403,4.39519,0.40913,0.43579,70.06222,0.15247,2.62139,10.86755,2.01154,0,0,12.55519,0.97755,1.05651,0.09324,3.72087,0.35182,31.92935,3.18909,18.02885,5.64224,0.66131,0.03233,0.27876,0.10331,0,0,0,0,-0,0,0,0,-0,0,-0,0,-0,0,0,0,0,0,0,0,-0,0,-0,0,-0,0,-0,0,-0,0,0,0,0,0,0,0,0,0,0,0,0,0,0,0,0,0,0,0,0,0,0,0,0,0,0,0,0,0,0,0,0,0,0,0,0,0,0,0,0,0.8695,2.88361,0.5626,0.43081,0.45524,class1
0.81829,0.5749,3.41395,293.62969,4.36856,0.80501,0.39679,73.26789,0.109,3.47171,10.705,1.56764,0,0,12.47409,0.9126,1.05662,0.08249,3.70518,0.35489,31.74728,2.74505,17.69263,5.29893,0.65908,0.029,0.267,0.09737,0,0,0,0,-0,0,0,0,-0,0,-0,0,-0,0,0,0,0,0,0,0,-0,0,-0,0,-0,0,-0,0,-0,0,0,0,0,0,0,0,0,0,0,0,0,0,0,0,0,0,0,0,0,0,0,0,0,0,0,0,0,0,0,0,0,0,0,0,0,0,0,0,0,0.83472,2.83049,0.57763,0.41491,0.48871,class1
0.80872,0.58205,3.37289,195.06089,4.18802,0.80622,0.79084,67.90043,0.1889,2.04946,10.89039,2.07974,0,0,12.56738,0.96064,1.06493,0.08939,3.75871,0.34594,31.87604,3.06687,18.077,5.68808,0.66127,0.03162,0.28589,0.09685,0,0,0,0,-0,0,0,0,-0,0,-0,0,-0,0,0,0,0,0,0,0,-0,0,-0,0,-0,0,-0,0,-0,0,0,0,0,0,0,0,0,0,0,0,0,0,0,0,0,0,0,0,0,0,0,0,0,0,0,0,0,0,0,0,0,0,0,0,0,0,0,0,0,0.85211,2.85722,0.59933,0.46887,0.47768,class1
0.79353,0.60468,3.41801,272.46447,4.49905,0.89617,0.84137,74.94641,0.144,1.67816,10.72574,1.84969,0,0,12.45395,0.87042,1.05519,0.08744,3.70877,0.34388,31.69643,2.60529,17.54202,5.13056,0.65825,0.0287,0.26943,0.09555,0,0,0,0,-0,0,0,0,-0,0,-0,0,-0,0,0,0,0,0,0,0,-0,0,-0,0,-0,0,-0,0,-0,0,0,0,0,0,0,0,0,0,0,0,0,0,0,0,0,0,0,0,0,0,0,0,0,0,0,0,0,0,0,0,0,0,0,0,0,0,0,0,0,0.66082,2.5412,0.59432,0.38581,0.41815,class1
0.81181,0.58402,3.38513,254.44503,4.31236,0.6463,0.07191,81.66011,0.13771,2.15244,10.73324,1.79952,0,0,12.4799,0.94113,1.0521,0.08641,3.69614,0.33822,31.77258,2.81165,17.63691,5.23777,0.65882,0.03011,0.2707,0.09908,0,0,0,0,-0,0,0,0,-0,0,-0,0,-0,0,0,0,0,0,0,0,-0,0,-0,0,-0,0,-0,0,-0,0,0,0,0,0,0,0,0,0,0,0,0,0,0,0,0,0,0,0,0,0,0,0,0,0,0,0,0,0,0,0,0,0,0,0,0,0,0,0,0,0.78255,2.74806,0.58765,0.40837,0.4489,class1
0.82025,0.56887,3.42132,312.31767,4.43763,0.25403,0.01324,71.81239,0.12275,3.13463,10.82156,1.92318,0,0,12.53446,0.9861,1.05329,0.09051,3.70429,0.34989,31.90322,3.12989,17.92433,5.53999,0.66067,0.03207,0.27471,0.10429,0,0,0,0,-0,0,0,0,-0,0,-0,0,-0,0,0,0,0,0,0,0,-0,0,-0,0,-0,0,-0,0,-0,0,0,0,0,0,0,0,0,0,0,0,0,0,0,0,0,0,0,0,0,0,0,0,0,0,0,0,0,0,0,0,0,0,0,0,0,0,0,0,0,0.88689,2.90965,0.57262,0.44902,0.52442,class1
0.81689,0.5784,3.41708,277.3908,4.40917,0.64993,0.1447,74.57046,0.12145,2.93153,10.89065,2.17298,0,0,12.53114,0.95175,1.054,0.09539,3.71545,0.35159,31.90431,3.1324,18.03287,5.64611,0.66092,0.03216,0.27662,0.10443,0,0,0,0,-0,0,0,0,-0,0,-0,0,-0,0,0,0,0,0,0,0,-0,0,-0,0,-0,0,-0,0,-0,0,0,0,0,0,0,0,0,0,0,0,0,0,0,0,0,0,0,0,0,0,0,0,0,0,0,0,0,0,0,0,0,0,0,0,0,0,0,0,0,0.85211,2.85722,0.56928,0.43686,0.46978,class1
0.82406,0.56719,3.41133,263.75517,4.40339,0.53881,0.3903,72.33983,0.11435,3.62623,10.87117,1.99064,0,0,12.56968,1.00122,1.05665,0.08709,3.72136,0.33741,31.93049,3.19164,18.11139,5.72036,0.66143,0.03218,0.28044,0.1035,0,0,0,0,-0,0,0,0,-0,0,-0,0,-0,0,0,0,0,0,0,0,-0,0,-0,0,-0,0,-0,0,-0,0,0,0,0,0,0,0,0,0,0,0,0,0,0,0,0,0,0,0,0,0,0,0,0,0,0,0,0,0,0,0,0,0,0,0,0,0,0,0,0,0.99124,3.05916,0.5576,0.47049,0.50738,class1
0.81028,0.58757,3.45076,305.68342,4.36841,0.30417,0.18126,72.03943,0.12315,1.61792,10.81202,1.90574,0,0,12.51542,0.94393,1.05618,0.08939,3.71596,0.35055,31.85197,3.00974,17.7188,5.32721,0.6604,0.0315,0.27556,0.09923,0,0,0,0,-0,0,0,0,-0,0,-0,0,-0,0,0,0,0,0,0,0,-0,0,-0,0,-0,0,-0,0,-0,0,0,0,0,0,0,0,0,0,0,0,0,0,0,0,0,0,0,0,0,0,0,0,0,0,0,0,0,0,0,0,0,0,0,0,0,0,0,0,0,0.8695,2.88361,0.58431,0.4487,0.50661,class1
0.83889,0.54456,4.17659,171.31053,4.21622,0.52845,0.71929,145.27326,0.20736,3.94379,10.65149,1.68104,0,0,12.41454,0.87291,1.04887,0.08548,3.67201,0.35451,31.69345,2.59682,17.29445,4.83084,0.65723,0.02835,0.25371,0.10394,0,0,0,0,-0,0,0,0,-0,0,-0,0,-0,0,0,0,0,0,0,0,-0,0,-0,0,-0,0,-0,0,-0,0,0,0,0,0,0,0,0,0,0,0,0,0,0,0,0,0,0,0,0,0,0,0,0,0,0,0,0,0,0,0,0,0,0,0,0,0,0,0,0,0.59126,2.41228,0.67446,0.38649,0.47519,class1
0.82607,0.56435,3.37295,289.12295,4.23247,0.2132,0.22308,78.45245,0.16706,2.76219,10.82109,1.79986,0,0,12.5611,0.98984,1.05737,0.08651,3.72165,0.33601,31.74645,2.74283,17.95046,5.56591,0.66134,0.03186,0.27976,0.10188,0,0,0,0,-0,0,0,0,-0,0,-0,0,-0,0,0,0,0,0,0,0,-0,0,-0,0,-0,0,-0,0,-0,0,0,0,0,0,0,0,0,0,0,0,0,0,0,0,0,0,0,0,0,0,0,0,0,0,0,0,0,0,0,0,0,0,0,0,0,0,0,0,0,1.00863,3.08303,0.58431,0.4672,0.50747,class1
0.82328,0.56923,3.38341,224.20125,4.21496,0.48523,0.43694,80.46557,0.1245,2.92991,10.80313,1.91403,0,0,12.52056,0.96989,1.05421,0.09079,3.70929,0.35333,31.87709,3.06933,17.76756,5.37915,0.66013,0.03171,0.27287,0.10456,0,0,0,0,-0,0,0,0,-0,0,-0,0,-0,0,0,0,0,0,0,0,-0,0,-0,0,-0,0,-0,0,-0,0,0,0,0,0,0,0,0,0,0,0,0,0,0,0,0,0,0,0,0,0,0,0,0,0,0,0,0,0,0,0,0,0,0,0,0,0,0,0,0,0.8695,2.88361,0.58598,0.45161,0.51638,class1
0.82029,0.57413,3.42744,297.45031,4.24528,0.37246,0.06279,85.5684,0.12852,3.58422,10.84085,1.76592,0,0,12.56396,0.96313,1.06338,0.08602,3.74181,0.3552,31.74645,2.74283,17.8982,5.51382,0.66189,0.03197,0.27902,0.10008,0,0,0,0,-0,0,0,0,-0,0,-0,0,-0,0,0,0,0,0,0,0,-0,0,-0,0,-0,0,-0,0,-0,0,0,0,0,0,0,0,0,0,0,0,0,0,0,0,0,0,0,0,0,0,0,0,0,0,0,0,0,0,0,0,0,0,0,0,0,0,0,0,0,0.99124,3.05916,0.55092,0.44674,0.50607,class1
0.81477,0.58118,3.45291,256.27247,4.31728,0.31829,0.20004,76.84407,0.12925,4.2006,10.81001,1.82635,0,0,12.54174,0.9435,1.06129,0.08722,3.73341,0.35678,31.67159,2.53384,17.83832,5.45294,0.66041,0.02928,0.27569,0.10158,0,0,0,0,-0,0,0,0,-0,0,-0,0,-0,0,0,0,0,0,0,0,-0,0,-0,0,-0,0,-0,0,-0,0,0,0,0,0,0,0,0,0,0,0,0,0,0,0,0,0,0,0,0,0,0,0,0,0,0,0,0,0,0,0,0,0,0,0,0,0,0,0,0,0.97385,3.035,0.54591,0.43862,0.50809,class1
0.81136,0.58448,3.42355,318.29026,4.45477,0.1294,0.10885,71.37133,0.09175,2.85476,10.81358,1.84822,0,0,12.54284,0.9589,1.0578,0.08898,3.72298,0.35182,31.80427,2.89263,17.97403,5.58913,0.66067,0.03039,0.27647,0.1024,0,0,0,0,-0,0,0,0,-0,0,-0,0,-0,0,0,0,0,0,0,0,-0,0,-0,0,-0,0,-0,0,-0,0,0,0,0,0,0,0,0,0,0,0,0,0,0,0,0,0,0,0,0,0,0,0,0,0,0,0,0,0,0,0,0,0,0,0,0,0,0,0,0,0.93907,2.98579,0.56761,0.43747,0.50401,class1
0.84428,0.53479,3.41743,272.5279,4.44046,0.22555,0.52085,75.0261,0.14171,4.01617,10.84513,1.94697,0,0,12.55123,0.99057,1.05399,0.089,3.7078,0.34432,31.85197,3.00974,17.95436,5.56976,0.66115,0.03187,0.27735,0.1034,0,0,0,0,-0,0,0,0,-0,0,-0,0,-0,0,0,0,0,0,0,0,-0,0,-0,0,-0,0,-0,0,-0,0,0,0,0,0,0,0,0,0,0,0,0,0,0,0,0,0,0,0,0,0,0,0,0,0,0,0,0,0,0,0,0,0,0,0,0,0,0,0,0,0.93907,2.98579,0.5626,0.4837,0.55708,class1
0.8343,0.5518,3.39736,273.22047,4.151,0.13579,0.27123,68.80248,0.14282,3.05567,10.88094,2.03485,0,0,12.5599,0.98234,1.05847,0.08875,3.7253,0.35337,31.93049,3.19164,18.13756,5.74466,0.66117,0.03193,0.27904,0.10213,0,0,0,0,-0,0,0,0,-0,0,-0,0,-0,0,0,0,0,0,0,0,-0,0,-0,0,-0,0,-0,0,-0,0,0,0,0,0,0,0,0,0,0,0,0,0,0,0,0,0,0,0,0,0,0,0,0,0,0,0,0,0,0,0,0,0,0,0,0,0,0,0,0,0.95646,3.01055,0.55927,0.46712,0.51737,class1
0.81926,0.57176,3.4235,260.70949,4.27173,0.07743,0.43578,78.09026,0.13964,3.241,10.85849,2.00409,0,0,12.53279,0.95709,1.05476,0.0869,3.71002,0.34135,31.79779,2.87627,17.97266,5.58774,0.66105,0.03126,0.27582,0.10159,0,0,0,0,-0,0,0,0,-0,0,-0,0,-0,0,0,0,0,0,0,0,-0,0,-0,0,-0,0,-0,0,-0,0,0,0,0,0,0,0,0,0,0,0,0,0,0,0,0,0,0,0,0,0,0,0,0,0,0,0,0,0,0,0,0,0,0,0,0,0,0,0,0,0.93907,2.98579,0.5576,0.44809,0.52847,class1
0.82838,0.55845,3.39869,231.49376,4.48701,0.69828,0.38063,69.11904,0.12067,3.07867,10.84002,1.87432,0,0,12.54105,0.94964,1.06095,0.08598,3.72934,0.36099,31.85096,3.00732,18.02885,5.64224,0.66114,0.03153,0.27469,0.10126,0,0,0,0,-0,0,0,0,-0,0,-0,0,-0,0,0,0,0,0,0,0,-0,0,-0,0,-0,0,-0,0,-0,0,0,0,0,0,0,0,0,0,0,0,0,0,0,0,0,0,0,0,0,0,0,0,0,0,0,0,0,0,0,0,0,0,0,0,0,0,0,0,0,0.99124,3.05916,0.55259,0.45186,0.52402,class1
0.86207,0.50704,3.41534,273.46169,4.31032,0.65853,0.42276,69.7745,0.12937,4.69838,10.78961,1.7027,0,0,12.54003,1.01655,1.05025,0.07968,3.68145,0.33197,31.82387,2.94141,17.92049,5.53615,0.6611,0.03225,0.27084,0.10531,0,0,0,0,-0,0,0,0,-0,0,-0,0,-0,0,0,0,0,0,0,0,-0,0,-0,0,-0,0,-0,0,-0,0,0,0,0,0,0,0,0,0,0,0,0,0,0,0,0,0,0,0,0,0,0,0,0,0,0,0,0,0,0,0,0,0,0,0,0,0,0,0,0,1.00863,3.08303,0.53756,0.46837,0.5436,class1
0.85234,0.52447,4.08039,156.58025,4.07232,0.62485,0.13411,136.77418,0.21767,4.28581,10.64012,1.59373,0,0,12.42854,0.92087,1.04635,0.08382,3.66006,0.3575,31.7717,2.80938,17.24228,4.76364,0.65726,0.02851,0.25215,0.10712,0,0,0,0,-0,0,0,0,-0,0,-0,0,-0,0,0,0,0,0,0,0,-0,0,-0,0,-0,0,-0,0,-0,0,0,0,0,0,0,0,0,0,0,0,0,0,0,0,0,0,0,0,0,0,0,0,0,0,0,0,0,0,0,0,0,0,0,0,0,0,0,0,0,0.71299,2.63253,0.6995,0.38398,0.48731,class1
0.84933,0.52827,3.38957,250.1133,4.42097,0.17142,0.12321,68.15591,0.12822,3.72137,10.85389,2.01686,0,0,12.5249,0.96922,1.05168,0.08624,3.69382,0.34268,31.82387,2.94141,17.97266,5.58774,0.66075,0.03117,0.27232,0.10372,0,0,0,0,-0,0,0,0,-0,0,-0,0,-0,0,0,0,0,0,0,0,-0,0,-0,0,-0,0,-0,0,-0,0,0,0,0,0,0,0,0,0,0,0,0,0,0,0,0,0,0,0,0,0,0,0,0,0,0,0,0,0,0,0,0,0,0,0,0,0,0,0,0,0.93907,2.98579,0.55426,0.46226,0.54613,class1
0.85177,0.52339,3.43095,291.723,4.34325,0.40321,0.24528,75.20681,0.1453,3.74015,10.87201,2.01768,0,0,12.54229,0.98333,1.05423,0.08395,3.70473,0.33626,31.90213,3.12739,18.02483,5.63837,0.66111,0.03205,0.27552,0.10304,0,0,0,0,-0,0,0,0,-0,0,-0,0,-0,0,0,0,0,0,0,0,-0,0,-0,0,-0,0,-0,0,-0,0,0,0,0,0,0,0,0,0,0,0,0,0,0,0,0,0,0,0,0,0,0,0,0,0,0,0,0,0,0,0,0,0,0,0,0,0,0,0,0,0.99124,3.05916,0.53589,0.47983,0.53824,class1
0.81199,0.58533,3.39898,278.06125,4.28263,0.56857,0.38638,69.50312,0.12188,3.05478,10.79688,1.67691,0,0,12.55849,0.96861,1.06143,0.08505,3.73262,0.35554,31.72111,2.67415,17.79732,5.41041,0.66116,0.03083,0.27708,0.1017,0,0,0,0,-0,0,0,0,-0,0,-0,0,-0,0,0,0,0,0,0,0,-0,0,-0,0,-0,0,-0,0,-0,0,0,0,0,0,0,0,0,0,0,0,0,0,0,0,0,0,0,0,0,0,0,0,0,0,0,0,0,0,0,0,0,0,0,0,0,0,0,0,0,1.02602,3.10662,0.54925,0.44619,0.52224,class1
0.84046,0.54445,3.45897,279.90513,4.24673,0.4517,0.28894,78.17589,0.15086,2.61716,10.89184,2.02411,0,0,12.57037,1.0109,1.05401,0.08993,3.71417,0.33431,31.9543,3.24441,18.02483,5.63837,0.66219,0.03404,0.2817,0.10375,0,0,0,0,-0,0,0,0,-0,0,-0,0,-0,0,0,0,0,0,0,0,-0,0,-0,0,-0,0,-0,0,-0,0,0,0,0,0,0,0,0,0,0,0,0,0,0,0,0,0,0,0,0,0,0,0,0,0,0,0,0,0,0,0,0,0,0,0,0,0,0,0,0,0.93907,2.98579,0.56594,0.47067,0.5029,class1
0.83965,0.54527,3.39769,264.4052,4.38099,0.24151,0.03088,76.77669,0.14422,3.61993,10.80248,1.71151,0,0,12.56657,1.00619,1.05697,0.08453,3.71709,0.33839,31.74728,2.74505,17.90201,5.51765,0.6613,0.03166,0.27891,0.10258,0,0,0,0,-0,0,0,0,-0,0,-0,0,-0,0,0,0,0,0,0,0,-0,0,-0,0,-0,0,-0,0,-0,0,0,0,0,0,0,0,0,0,0,0,0,0,0,0,0,0,0,0,0,0,0,0,0,0,0,0,0,0,0,0,0,0,0,0,0,0,0,0,0,0.99124,3.05916,0.54591,0.47173,0.53459,class1
0.82289,0.56936,3.42902,258.83683,4.41514,0.14711,0.08511,76.28062,0.124,2.77114,10.83649,1.94279,0,0,12.53675,0.96412,1.05657,0.09256,3.7181,0.35956,31.85298,3.01217,17.93205,5.54768,0.66088,0.03168,0.27561,0.10303,0,0,0,0,-0,0,0,0,-0,0,-0,0,-0,0,0,0,0,0,0,0,-0,0,-0,0,-0,0,-0,0,-0,0,0,0,0,0,0,0,0,0,0,0,0,0,0,0,0,0,0,0,0,0,0,0,0,0,0,0,0,0,0,0,0,0,0,0,0,0,0,0,0,0.88689,2.97135,0.57095,0.4457,0.49515,class1
0.81062,0.58673,3.43033,263.44281,4.4192,0.26552,0.83772,79.83466,0.12077,3.69934,10.90179,2.14502,0,0,12.54119,0.93921,1.05812,0.09147,3.72809,0.35405,31.90541,3.13492,18.06313,5.67497,0.66104,0.03127,0.27771,0.1019,0,0,0,0,-0,0,0,0,-0,0,-0,0,-0,0,0,0,0,0,0,0,-0,0,-0,0,-0,0,-0,0,-0,0,0,0,0,0,0,0,0,0,0,0,0,0,0,0,0,0,0,0,0,0,0,0,0,0,0,0,0,0,0,0,0,0,0,0,0,0,0,0,0,0.83472,2.83049,0.56594,0.43819,0.49182,class1
0.84173,0.54227,3.38967,276.17302,4.33108,0.14942,0.72856,69.53349,0.1424,3.21443,10.85506,1.98365,0,0,12.54957,0.97247,1.05665,0.09178,3.72052,0.35733,31.85096,3.00732,17.87207,5.4874,0.66111,0.03198,0.277,0.10413,0,0,0,0,-0,0,0,0,-0,0,-0,0,-0,0,0,0,0,0,0,0,-0,0,-0,0,-0,0,-0,0,-0,0,0,0,0,0,0,0,0,0,0,0,0,0,0,0,0,0,0,0,0,0,0,0,0,0,0,0,0,0,0,0,0,0,0,0,0,0,0,0,0,0.90428,2.93535,0.53589,0.45281,0.50106,class1
0.81134,0.58489,3.40874,258.87664,4.17619,0.13569,0.95938,71.76245,0.1072,3.52582,10.81156,1.8648,0,0,12.5339,0.96231,1.05772,0.08345,3.71664,0.33831,31.75063,2.754,17.86467,5.47991,0.6603,0.02974,0.27472,0.1009,0,0,0,0,-0,0,0,0,-0,0,-0,0,-0,0,0,0,0,0,0,0,-0,0,-0,0,-0,0,-0,0,-0,0,0,0,0,0,0,0,0,0,0,0,0,0,0,0,0,0,0,0,0,0,0,0,0,0,0,0,0,0,0,0,0,0,0,0,0,0,0,0,0,1.0608,3.21001,0.55092,0.43558,0.50323,class1
0.82255,0.57004,3.37655,303.91164,4.3134,0.08474,0.64868,85.55679,0.13858,3.71206,10.77423,1.64778,0,0,12.52947,0.97225,1.05543,0.08617,3.70629,0.35319,31.7987,2.87859,17.92433,5.53999,0.66084,0.03147,0.27278,0.10195,0,0,0,0,-0,0,0,0,-0,0,-0,0,-0,0,0,0,0,0,0,0,-0,0,-0,0,-0,0,-0,0,-0,0,0,0,0,0,0,0,0,0,0,0,0,0,0,0,0,0,0,0,0,0,0,0,0,0,0,0,0,0,0,0,0,0,0,0,0,0,0,0,0,0.97385,3.035,0.5576,0.42032,0.49314,class1
0.87278,0.48933,0.83635,164.49515,4.06941,0.31469,0.16104,143.26149,0.21312,4.3442,10.67928,1.79792,0,0,12.41811,0.93114,1.04168,0.0883,3.64035,0.36128,31.74562,2.74061,17.39879,4.96087,0.65724,0.02923,0.24859,0.1098,0,0,0,0,-0,0,0,0,-0,0,-0,0,-0,0,0,0,0,0,0,0,-0,0,-0,0,-0,0,-0,0,-0,0,0,0,0,0,0,0,0,0,0,0,0,0,0,0,0,0,0,0,0,0,0,0,0,0,0,0,0,0,0,0,0,0,0,0,0,0,0,0,0,0.74777,2.69114,0.63439,0.38062,0.49446,class1
0.83087,0.5589,3.39732,260.62268,4.2227,0.14532,0.66942,72.05045,0.11289,3.40766,10.83884,1.93226,0,0,12.54348,0.98187,1.0546,0.08903,3.70953,0.34966,31.88131,3.07923,17.96612,5.58136,0.66092,0.03132,0.27478,0.10478,0,0,0,0,-0,0,0,0,-0,0,-0,0,-0,0,0,0,0,0,0,0,-0,0,-0,0,-0,0,-0,0,-0,0,0,0,0,0,0,0,0,0,0,0,0,0,0,0,0,0,0,0,0,0,0,0,0,0,0,0,0,0,0,0,0,0,0,0,0,0,0,0,0,0.99124,3.05916,0.54591,0.45672,0.51613,class1
0.82622,0.56401,3.39246,260.61516,4.27018,0.09012,0.23122,67.20745,0.11671,2.67856,10.81179,1.77581,0,0,12.56057,1.00302,1.05709,0.0885,3.72012,0.35114,31.93163,3.1942,17.90583,5.5215,0.66125,0.03268,0.27903,0.10216,0,0,0,0,-0,0,0,0,-0,0,-0,0,-0,0,0,0,0,0,0,0,-0,0,-0,0,-0,0,-0,0,-0,0,0,0,0,0,0,0,0,0,0,0,0,0,0,0,0,0,0,0,0,0,0,0,0,0,0,0,0,0,0,0,0,0,0,0,0,0,0,0,0,1.0608,3.15298,0.56594,0.45849,0.51524,class1
0.83152,0.55717,3.41511,220.9721,4.15626,0.08691,0.10867,83.46413,0.09553,2.93418,10.92125,2.0575,0,0,12.58247,1.05195,1.04795,0.0917,3.68322,0.35232,32.03255,3.41093,18.23351,5.83185,0.66278,0.03459,0.2735,0.1133,0,0,0,0,-0,0,0,0,-0,0,-0,0,-0,0,0,0,0,0,0,0,-0,0,-0,0,-0,0,-0,0,-0,0,0,0,0,0,0,0,0,0,0,0,0,0,0,0,0,0,0,0,0,0,0,0,0,0,0,0,0,0,0,0,0,0,0,0,0,0,0,0,0,1.13036,3.24259,0.58264,0.45353,0.52993,class1
0.84862,0.52837,3.41885,234.50189,4.3565,0.49548,0.23794,83.83897,0.12777,2.27957,10.74455,1.74389,0,0,12.49782,0.964,1.05102,0.08683,3.68466,0.35605,31.88238,3.08172,17.75927,5.37043,0.65933,0.03008,0.26619,0.10435,0,0,0,0,-0,0,0,0,-0,0,-0,0,-0,0,0,0,0,0,0,0,-0,0,-0,0,-0,0,-0,0,-0,0,0,0,0,0,0,0,0,0,0,0,0,0,0,0,0,0,0,0,0,0,0,0,0,0,0,0,0,0,0,0,0,0,0,0,0,0,0,0,0,0.83472,2.83049,0.53923,0.4289,0.51335,class1
0.85983,0.51021,3.41249,251.68414,4.29414,0.58788,0.02855,83.01173,0.15778,3.66055,10.83235,1.90218,0,0,12.55254,1.03031,1.04827,0.08808,3.6839,0.33411,31.90213,3.12739,18.02483,5.63837,0.66129,0.03311,0.27501,0.10723,0,0,0,0,-0,0,0,0,-0,0,-0,0,-0,0,0,0,0,0,0,0,-0,0,-0,0,-0,0,-0,0,-0,0,0,0,0,0,0,0,0,0,0,0,0,0,0,0,0,0,0,0,0,0,0,0,0,0,0,0,0,0,0,0,0,0,0,0,0,0,0,0,0,0.90428,2.93535,0.56928,0.47435,0.54,class1
0.81256,0.58195,3.38574,292.13677,4.29561,0.54163,0.57852,71.68083,0.11067,3.65299,10.86116,1.98616,0,0,12.53972,0.97431,1.05616,0.09024,3.71504,0.35522,31.90762,3.13997,17.96612,5.58136,0.66106,0.03197,0.27521,0.10346,0,0,0,0,-0,0,0,0,-0,0,-0,0,-0,0,0,0,0,0,0,0,-0,0,-0,0,-0,0,-0,0,-0,0,0,0,0,0,0,0,0,0,0,0,0,0,0,0,0,0,0,0,0,0,0,0,0,0,0,0,0,0,0,0,0,0,0,0,0,0,0,0,0,1.0608,3.15298,0.55092,0.44269,0.52154,class1
0.84492,0.53283,3.38858,222.67205,4.4625,0.62406,0.02881,76.22275,0.12533,3.22526,10.82984,1.88277,0,0,12.52283,0.98175,1.05154,0.08216,3.6901,0.33853,31.82387,2.94141,17.99875,5.61317,0.66106,0.03232,0.27046,0.10428,0,0,0,0,-0,0,0,0,-0,0,-0,0,-0,0,0,0,0,0,0,0,-0,0,-0,0,-0,0,-0,0,-0,0,0,0,0,0,0,0,0,0,0,0,0,0,0,0,0,0,0,0,0,0,0,0,0,0,0,0,0,0,0,0,0,0,0,0,0,0,0,0,0,1.02602,3.10662,0.54591,0.44808,0.53477,class1
0.84585,0.5318,3.39811,264.41141,4.45051,0.61834,0.13853,76.15708,0.13988,4.63522,10.84002,1.90363,0,0,12.5525,1.03137,1.04844,0.08752,3.67949,0.34352,31.98161,3.30369,18.02885,5.64224,0.66131,0.0327,0.27104,0.1101,0,0,0,0,-0,0,0,0,-0,0,-0,0,-0,0,0,0,0,0,0,0,-0,0,-0,0,-0,0,-0,0,-0,0,0,0,0,0,0,0,0,0,0,0,0,0,0,0,0,0,0,0,0,0,0,0,0,0,0,0,0,0,0,0,0,0,0,0,0,0,0,0,0,0.99124,3.05916,0.56427,0.45036,0.52633,class1
0.83607,0.5463,3.38722,289.14585,4.31083,0.67068,0.07899,68.48293,0.12612,4.0163,10.90539,2.21337,0,0,12.53406,0.97446,1.05008,0.09103,3.6926,0.3475,31.92821,3.18654,18.02483,5.63837,0.66098,0.03175,0.27208,0.10794,0,0,0,0,-0,0,0,0,-0,0,-0,0,-0,0,0,0,0,0,0,0,-0,0,-0,0,-0,0,-0,0,-0,0,0,0,0,0,0,0,0,0,0,0,0,0,0,0,0,0,0,0,0,0,0,0,0,0,0,0,0,0,0,0,0,0,0,0,0,0,0,0,0,0.8695,2.88361,0.55259,0.46171,0.54549,class1
0.83251,0.5511,3.396,274.958,4.3381,0.7029,0.04832,69.17922,0.13417,3.7258,10.80933,1.72393,0,0,12.55621,1.02385,1.05242,0.08285,3.6949,0.33735,31.82387,2.94141,17.97266,5.58774,0.66149,0.03258,0.27419,0.10576,0,0,0,0,-0,0,0,0,-0,0,-0,0,-0,0,0,0,0,0,0,0,-0,0,-0,0,-0,0,-0,0,-0,0,0,0,0,0,0,0,0,0,0,0,0,0,0,0,0,0,0,0,0,0,0,0,0,0,0,0,0,0,0,0,0,0,0,0,0,0,0,0,0,1.00863,3.08303,0.56093,0.46668,0.56083,class1
0.81576,0.5798,2.49817,156.02242,4.14107,0.12699,0.39834,99.91508,0.22528,2.35572,10.66618,1.6867,0,0,12.41569,0.84101,1.05397,0.07995,3.69368,0.33976,31.69345,2.59682,17.24228,4.76364,0.65751,0.02782,0.25871,0.09836,0,0,0,0,-0,0,0,0,-0,0,-0,0,-0,0,0,0,0,0,0,0,-0,0,-0,0,-0,0,-0,0,-0,0,0,0,0,0,0,0,0,0,0,0,0,0,0,0,0,0,0,0,0,0,0,0,0,0,0,0,0,0,0,0,0,0,0,0,0,0,0,0,0,0.6956,2.60256,0.63439,0.38678,0.45146,class1
0.84582,0.53221,3.43792,307.12386,4.31495,0.06435,0.69092,71.41762,0.12733,4.05034,10.88412,2.12006,0,0,12.5361,0.96343,1.0536,0.08904,3.70531,0.34682,31.82387,2.94141,17.92049,5.53615,0.66099,0.03139,0.27443,0.10399,0,0,0,0,-0,0,0,0,-0,0,-0,0,-0,0,0,0,0,0,0,0,-0,0,-0,0,-0,0,-0,0,-0,0,0,0,0,0,0,0,0,0,0,0,0,0,0,0,0,0,0,0,0,0,0,0,0,0,0,0,0,0,0,0,0,0,0,0,0,0,0,0,0,0.92168,2.96073,0.53923,0.46106,0.52516,class1
0.84808,0.52833,3.39284,257.58441,4.25357,0.59637,0.14926,69.39151,0.13554,3.51796,10.8328,1.92927,0,0,12.53676,0.99419,1.05116,0.08876,3.69129,0.35368,31.85197,3.00974,17.98053,5.59545,0.66076,0.03135,0.27066,0.10805,0,0,0,0,-0,0,0,0,-0,0,-0,0,-0,0,0,0,0,0,0,0,-0,0,-0,0,-0,0,-0,0,-0,0,0,0,0,0,0,0,0,0,0,0,0,0,0,0,0,0,0,0,0,0,0,0,0,0,0,0,0,0,0,0,0,0,0,0,0,0,0,0,0,0.97385,3.035,0.56594,0.46018,0.54504,class1
0.87057,0.49204,3.45831,244.40852,4.27048,0.58369,0.35963,70.53014,0.15294,4.71299,10.85289,1.9181,0,0,12.56775,1.02235,1.05205,0.08771,3.69854,0.33978,31.84996,3.00491,18.15526,5.76095,0.66163,0.03251,0.27744,0.10579,0,0,0,0,-0,0,0,0,-0,0,-0,0,-0,0,0,0,0,0,0,0,-0,0,-0,0,-0,0,-0,0,-0,0,0,0,0,0,0,0,0,0,0,0,0,0,0,0,0,0,0,0,0,0,0,0,0,0,0,0,0,0,0,0,0,0,0,0,0,0,0,0,0,0.95646,3.01055,0.52922,0.49176,0.55227,class1
0.82966,0.55807,3.41799,252.01396,4.43326,0.35901,0.14466,95.75531,0.10605,3.14772,10.89046,2.04536,0,0,12.55966,1.06486,1.04302,0.09218,3.66199,0.34918,32.08752,3.52216,18.21608,5.81624,0.66209,0.03502,0.26977,0.11467,0,0,0,0,-0,0,0,0,-0,0,-0,0,-0,0,0,0,0,0,0,0,-0,0,-0,0,-0,0,-0,0,-0,0,0,0,0,0,0,0,0,0,0,0,0,0,0,0,0,0,0,0,0,0,0,0,0,0,0,0,0,0,0,0,0,0,0,0,0,0,0,0,0,1.02602,3.10662,0.59432,0.43281,0.50852,class1
0.82595,0.56514,3.38347,295.72629,4.32776,0.36345,0.04091,73.54899,0.11647,2.67401,10.79521,1.8166,0,0,12.52897,0.94608,1.05822,0.08572,3.72074,0.35115,31.77433,2.81621,17.93205,5.54768,0.66035,0.03058,0.27527,0.09975,0,0,0,0,-0,0,0,0,-0,0,-0,0,-0,0,0,0,0,0,0,0,-0,0,-0,0,-0,0,-0,0,-0,0,0,0,0,0,0,0,0,0,0,0,0,0,0,0,0,0,0,0,0,0,0,0,0,0,0,0,0,0,0,0,0,0,0,0,0,0,0,0,0,0.85211,2.85722,0.5409,0.44606,0.50266,class1
0.832,0.55583,3.3891,295.82869,4.27978,0.41941,0.06636,68.21425,0.12489,3.53725,10.81686,1.87839,0,0,12.53117,0.97839,1.05395,0.08389,3.70447,0.33443,31.85096,3.00732,17.87207,5.4874,0.66064,0.0314,0.27551,0.10145,0,0,0,0,-0,0,0,0,-0,0,-0,0,-0,0,0,0,0,0,0,0,-0,0,-0,0,-0,0,-0,0,-0,0,0,0,0,0,0,0,0,0,0,0,0,0,0,0,0,0,0,0,0,0,0,0,0,0,0,0,0,0,0,0,0,0,0,0,0,0,0,0,0,1.00863,3.08303,0.5626,0.46933,0.5536,class1
0.85682,0.51747,3.40665,269.55881,4.27693,0.495,0.84858,72.94661,0.13822,3.28843,10.82571,1.86005,0,0,12.55078,1.01983,1.04908,0.08458,3.68334,0.3302,31.82387,2.94141,18.05092,5.66334,0.66123,0.03204,0.27424,0.10613,0,0,0,0,-0,0,0,0,-0,0,-0,0,-0,0,0,0,0,0,0,0,-0,0,-0,0,-0,0,-0,0,-0,0,0,0,0,0,0,0,0,0,0,0,0,0,0,0,0,0,0,0,0,0,0,0,0,0,0,0,0,0,0,0,0,0,0,0,0,0,0,0,0,1.0608,3.15298,0.55593,0.46166,0.52831,class1
0.85534,0.51972,3.44028,278.56088,4.34136,0.41736,0.19189,77.27762,0.12178,3.83769,10.84198,2.01693,0,0,12.52446,0.96663,1.05258,0.08833,3.69954,0.34456,31.90431,3.1324,17.95436,5.56976,0.66048,0.03153,0.27263,0.10428,0,0,0,0,-0,0,0,0,-0,0,-0,0,-0,0,0,0,0,0,0,0,-0,0,-0,0,-0,0,-0,0,-0,0,0,0,0,0,0,0,0,0,0,0,0,0,0,0,0,0,0,0,0,0,0,0,0,0,0,0,0,0,0,0,0,0,0,0,0,0,0,0,0,0.8695,2.88361,0.53255,0.47274,0.54417,class1
0.82147,0.57143,3.39813,260.23781,4.32067,0.24775,0.06006,72.44555,0.128,4.13338,10.79416,1.68822,0,0,12.55452,0.98402,1.05852,0.08692,3.7219,0.35142,31.7987,2.87859,18.00272,5.61703,0.66105,0.03134,0.27696,0.10207,0,0,0,0,-0,0,0,0,-0,0,-0,0,-0,0,0,0,0,0,0,0,-0,0,-0,0,-0,0,-0,0,-0,0,0,0,0,0,0,0,0,0,0,0,0,0,0,0,0,0,0,0,0,0,0,0,0,0,0,0,0,0,0,0,0,0,0,0,0,0,0,0,0,0.95646,3.01055,0.54424,0.46121,0.5447,class1
0.81281,0.58265,3.39386,274.60553,4.36465,0.19937,0.0196,69.63622,0.11275,2.33745,10.82471,1.96173,0,0,12.53394,0.97872,1.05332,0.09428,3.70606,0.36018,31.85197,3.00974,17.84966,5.46455,0.66053,0.03184,0.2738,0.10589,0,0,0,0,-0,0,0,0,-0,0,-0,0,-0,0,0,0,0,0,0,0,-0,0,-0,0,-0,0,-0,0,-0,0,0,0,0,0,0,0,0,0,0,0,0,0,0,0,0,0,0,0,0,0,0,0,0,0,0,0,0,0,0,0,0,0,0,0,0,0,0,0,0,0.8695,2.88361,0.57596,0.44491,0.51391,class1
0.86181,0.50788,0.82661,157.00706,4.13484,0.29007,0.12589,139.53596,0.21367,4.31581,10.6285,1.63315,0,0,12.40763,0.90273,1.04385,0.08564,3.64854,0.35703,31.69345,2.59682,17.19011,4.6949,0.65677,0.02818,0.24826,0.10791,0,0,0,0,-0,0,0,0,-0,0,-0,0,-0,0,0,0,0,0,0,0,-0,0,-0,0,-0,0,-0,0,-0,0,0,0,0,0,0,0,0,0,0,0,0,0,0,0,0,0,0,0,0,0,0,0,0,0,0,0,0,0,0,0,0,0,0,0,0,0,0,0,0,0.67821,2.57212,0.65943,0.37578,0.48391,class1
0.82944,0.56069,3.39275,256.58412,4.26499,0.19546,0.16831,68.75394,0.14489,2.98611,10.85007,1.91755,0,0,12.56637,0.98702,1.05854,0.08895,3.73126,0.34263,31.92935,3.18909,18.0811,5.69196,0.66139,0.03197,0.28168,0.10194,0,0,0,0,-0,0,0,0,-0,0,-0,0,-0,0,0,0,0,0,0,0,-0,0,-0,0,-0,0,-0,0,-0,0,0,0,0,0,0,0,0,0,0,0,0,0,0,0,0,0,0,0,0,0,0,0,0,0,0,0,0,0,0,0,0,0,0,0,0,0,0,0,0,0.88689,2.90965,0.57429,0.45697,0.49237,class1
0.80737,0.59126,3.39417,276.45026,4.22309,0.40787,0.28039,73.26347,0.11725,1.92459,10.74282,1.62456,0,0,12.52623,0.93144,1.06165,0.08373,3.73176,0.35436,31.64325,2.44947,17.77475,5.38675,0.65971,0.0284,0.27581,0.09676,0,0,0,0,-0,0,0,0,-0,0,-0,0,-0,0,0,0,0,0,0,0,-0,0,-0,0,-0,0,-0,0,-0,0,0,0,0,0,0,0,0,0,0,0,0,0,0,0,0,0,0,0,0,0,0,0,0,0,0,0,0,0,0,0,0,0,0,0,0,0,0,0,0,0.8695,2.88361,0.60935,0.42482,0.46979,class1
0.8362,0.54717,3.39791,252.08687,4.39012,0.16756,0.1943,79.63998,0.10126,2.7479,10.87628,2.1187,0,0,12.52168,0.95389,1.05237,0.08765,3.69893,0.34414,31.87604,3.06687,17.99875,5.61317,0.66065,0.03096,0.2709,0.10585,0,0,0,0,-0,0,0,0,-0,0,-0,0,-0,0,0,0,0,0,0,0,-0,0,-0,0,-0,0,-0,0,-0,0,0,0,0,0,0,0,0,0,0,0,0,0,0,0,0,0,0,0,0,0,0,0,0,0,0,0,0,0,0,0,0,0,0,0,0,0,0,0,0,0.8695,2.88361,0.53255,0.43026,0.47933,class1
0.83321,0.55183,3.40758,272.01373,4.36612,0.14828,0.76601,68.49491,0.13548,3.38895,10.93234,2.20922,0,0,12.5615,0.99251,1.05309,0.08982,3.70613,0.34351,31.92821,3.18654,18.05092,5.66334,0.66165,0.03203,0.27669,0.10662,0,0,0,0,-0,0,0,0,-0,0,-0,0,-0,0,0,0,0,0,0,0,-0,0,-0,0,-0,0,-0,0,-0,0,0,0,0,0,0,0,0,0,0,0,0,0,0,0,0,0,0,0,0,0,0,0,0,0,0,0,0,0,0,0,0,0,0,0,0,0,0,0,0,0.99124,3.05916,0.55927,0.4596,0.5099,class1
0.82003,0.57557,3.37139,330.1642,4.29552,0.33762,0.40039,70.6733,0.12118,3.82171,10.75201,1.66707,0,0,12.52245,0.93093,1.05872,0.08335,3.72032,0.3454,31.69568,2.60317,17.72232,5.33099,0.65988,0.0288,0.27358,0.09947,0,0,0,0,-0,0,0,0,-0,0,-0,0,-0,0,0,0,0,0,0,0,-0,0,-0,0,-0,0,-0,0,-0,0,0,0,0,0,0,0,0,0,0,0,0,0,0,0,0,0,0,0,0,0,0,0,0,0,0,0,0,0,0,0,0,0,0,0,0,0,0,0,0,0.90428,2.93535,0.55259,0.43743,0.508,class1
0.83872,0.5437,3.38589,271.35268,4.4091,0.25161,0.62571,76.31136,0.11622,3.9219,10.86088,2.02727,0,0,12.54263,0.99703,1.05108,0.08721,3.69463,0.34283,31.92935,3.18909,18.0811,5.69196,0.66107,0.0324,0.27271,0.10762,0,0,0,0,-0,0,0,0,-0,0,-0,0,-0,0,0,0,0,0,0,0,-0,0,-0,0,-0,0,-0,0,-0,0,0,0,0,0,0,0,0,0,0,0,0,0,0,0,0,0,0,0,0,0,0,0,0,0,0,0,0,0,0,0,0,0,0,0,0,0,0,0,0,0.92168,2.96073,0.53756,0.44699,0.51895,class1
0.80878,0.58978,3.39913,167.23159,4.24184,0.27237,0.70543,79.06156,0.11612,3.11133,10.78499,1.89115,0,0,12.49461,0.90379,1.05947,0.09338,3.72674,0.37547,31.74811,2.74728,17.66988,5.27413,0.65943,0.02992,0.2701,0.10187,0,0,0,0,-0,0,0,0,-0,0,-0,0,-0,0,0,0,0,0,0,0,-0,0,-0,0,-0,0,-0,0,-0,0,0,0,0,0,0,0,0,0,0,0,0,0,0,0,0,0,0,0,0,0,0,0,0,0,0,0,0,0,0,0,0,0,0,0,0,0,0,0,0,0.85211,2.85722,0.54758,0.42566,0.50869,class1
0.80884,0.588,3.38667,240.53682,4.3493,0.18351,0.12846,69.04891,0.12218,2.44937,10.76377,1.8353,0,0,12.49743,0.92636,1.05609,0.08601,3.71298,0.33717,31.85197,3.00974,17.74497,5.35522,0.65942,0.03011,0.27435,0.09703,0,0,0,0,-0,0,0,0,-0,0,-0,0,-0,0,0,0,0,0,0,0,-0,0,-0,0,-0,0,-0,0,-0,0,0,0,0,0,0,0,0,0,0,0,0,0,0,0,0,0,0,0,0,0,0,0,0,0,0,0,0,0,0,0,0,0,0,0,0,0,0,0,0,0.78255,2.74806,0.58264,0.43062,0.48563,class1
0.83874,0.54496,3.41607,227.79714,4.31615,0.10726,0.37762,74.62208,0.1216,2.74158,10.79632,1.67952,0,0,12.56528,1.00468,1.05681,0.08125,3.71651,0.32586,31.7717,2.80938,17.84224,5.45691,0.66132,0.03146,0.27973,0.10124,0,0,0,0,-0,0,0,0,-0,0,-0,0,-0,0,0,0,0,0,0,0,-0,0,-0,0,-0,0,-0,0,-0,0,0,0,0,0,0,0,0,0,0,0,0,0,0,0,0,0,0,0,0,0,0,0,0,0,0,0,0,0,0,0,0,0,0,0,0,0,0,0,0,1.0608,3.15298,0.5576,0.45584,0.49524,class1
0.84747,0.53153,3.39744,281.84855,4.28831,0.29907,0.27545,69.64073,0.13669,2.83974,10.86942,1.99866,0,0,12.55459,1.02185,1.05012,0.08409,3.68785,0.3297,31.87604,3.06687,18.18134,5.78479,0.66141,0.0325,0.27497,0.10605,0,0,0,0,-0,0,0,0,-0,0,-0,0,-0,0,0,0,0,0,0,0,-0,0,-0,0,-0,0,-0,0,-0,0,0,0,0,0,0,0,0,0,0,0,0,0,0,0,0,0,0,0,0,0,0,0,0,0,0,0,0,0,0,0,0,0,0,0,0,0,0,0,0,0.97385,3.035,0.54925,0.45256,0.51455,class1
0.83335,0.55448,3.42106,140.85404,4.11734,0.36202,0.33459,136.21736,0.20448,2.74926,10.66642,1.63018,0,0,12.42829,0.89086,1.05132,0.08398,3.68089,0.35464,31.74562,2.74061,17.39879,4.96087,0.6579,0.02965,0.25611,0.10277,0,0,0,0,-0,0,0,0,-0,0,-0,0,-0,0,0,0,0,0,0,0,-0,0,-0,0,-0,0,-0,0,-0,0,0,0,0,0,0,0,0,0,0,0,0,0,0,0,0,0,0,0,0,0,0,0,0,0,0,0,0,0,0,0,0,0,0,0,0,0,0,0,0,0.74777,2.69114,0.64775,0.39169,0.46781,class1
0.81697,0.57784,3.43676,265.23531,4.37252,0.33788,0.24212,73.58389,0.10725,1.99099,10.78085,1.85585,0,0,12.51634,0.94713,1.05483,0.0905,3.70769,0.35343,31.75063,2.754,17.78562,5.3982,0.65987,0.03016,0.27241,0.10284,0,0,0,0,-0,0,0,0,-0,0,-0,0,-0,0,0,0,0,0,0,0,-0,0,-0,0,-0,0,-0,0,-0,0,0,0,0,0,0,0,0,0,0,0,0,0,0,0,0,0,0,0,0,0,0,0,0,0,0,0,0,0,0,0,0,0,0,0,0,0,0,0,0,0.92168,3.0214,0.56427,0.43472,0.50354,class1
0.81546,0.57974,3.4213,241.5764,4.38406,0.24817,0.60342,84.63652,0.10889,2.93204,10.89823,2.04296,0,0,12.55732,0.95825,1.06032,0.09197,3.73322,0.37029,31.7987,2.87859,18.0811,5.69196,0.66172,0.03158,0.27531,0.10608,0,0,0,0,-0,0,0,0,-0,0,-0,0,-0,0,0,0,0,0,0,0,-0,0,-0,0,-0,0,-0,0,-0,0,0,0,0,0,0,0,0,0,0,0,0,0,0,0,0,0,0,0,0,0,0,0,0,0,0,0,0,0,0,0,0,0,0,0,0,0,0,0,0,0.99124,3.05916,0.53255,0.41887,0.47607,class1
0.81875,0.57517,3.39455,304.07743,4.32941,0.13774,0.72612,70.84951,0.12776,3.10252,10.81743,1.82718,0,0,12.54392,0.95469,1.06005,0.08745,3.73155,0.35232,31.85298,3.01217,17.90583,5.5215,0.66089,0.03125,0.27771,0.10031,0,0,0,0,-0,0,0,0,-0,0,-0,0,-0,0,0,0,0,0,0,0,-0,0,-0,0,-0,0,-0,0,-0,0,0,0,0,0,0,0,0,0,0,0,0,0,0,0,0,0,0,0,0,0,0,0,0,0,0,0,0,0,0,0,0,0,0,0,0,0,0,0,0,0.99124,3.05916,0.55092,0.45435,0.51311,class1
0.81522,0.57908,3.38765,297.1011,4.23171,0.10775,1.00001,68.256,0.14376,2.88333,10.81076,1.77562,0,0,12.55412,0.98643,1.05827,0.0875,3.72563,0.34868,31.82483,2.94378,17.87207,5.4874,0.66116,0.03186,0.27834,0.10255,0,0,0,0,-0,0,0,0,-0,0,-0,0,-0,0,0,0,0,0,0,0,-0,0,-0,0,-0,0,-0,0,-0,0,0,0,0,0,0,0,0,0,0,0,0,0,0,0,0,0,0,0,0,0,0,0,0,0,0,0,0,0,0,0,0,0,0,0,0,0,0,0,0,0.93907,2.98579,0.56594,0.45029,0.51671,class1
0.82192,0.57161,3.3804,272.54219,4.33858,0.14251,0.24602,78.96793,0.12315,3.13888,10.79277,1.78928,0,0,12.539,0.96937,1.05923,0.08897,3.72563,0.36153,31.74728,2.74505,17.74497,5.35522,0.66044,0.03111,0.27506,0.10245,0,0,0,0,-0,0,0,0,-0,0,-0,0,-0,0,0,0,0,0,0,0,-0,0,-0,0,-0,0,-0,0,-0,0,0,0,0,0,0,0,0,0,0,0,0,0,0,0,0,0,0,0,0,0,0,0,0,0,0,0,0,0,0,0,0,0,0,0,0,0,0,0,0,0.90428,2.93535,0.5793,0.45186,0.51293,class1
0.8183,0.57642,3.3954,297.21376,4.39734,0.17619,0.21068,74.07908,0.10836,2.62853,10.78011,1.90425,0,0,12.50557,0.96529,1.04995,0.08879,3.6872,0.34254,31.77258,2.81165,17.87207,5.4874,0.65959,0.03014,0.26946,0.10531,0,0,0,0,-0,0,0,0,-0,0,-0,0,-0,0,0,0,0,0,0,0,-0,0,-0,0,-0,0,-0,0,-0,0,0,0,0,0,0,0,0,0,0,0,0,0,0,0,0,0,0,0,0,0,0,0,0,0,0,0,0,0,0,0,0,0,0,0,0,0,0,0,0,0.81733,2.80339,0.57763,0.42817,0.49681,class1
0.81309,0.58323,3.36219,248.98386,4.4541,0.2591,1.00004,81.6222,0.13875,1.87644,10.79856,1.88333,0,0,12.50751,0.94289,1.05489,0.08828,3.70808,0.34811,31.88131,3.07923,17.93981,5.55541,0.66015,0.03061,0.27196,0.10162,0,0,0,0,-0,0,0,0,-0,0,-0,0,-0,0,0,0,0,0,0,0,-0,0,-0,0,-0,0,-0,0,-0,0,0,0,0,0,0,0,0,0,0,0,0,0,0,0,0,0,0,0,0,0,0,0,0,0,0,0,0,0,0,0,0,0,0,0,0,0,0,0,0,0.90428,2.93535,0.56761,0.40814,0.44901,class1
0.82148,0.57314,3.40267,271.14189,4.37661,0.34957,0.3706,70.22426,0.12447,2.55177,10.83631,1.93039,0,0,12.5501,0.98677,1.05513,0.08744,3.7127,0.34306,31.85197,3.00974,17.98053,5.59545,0.66092,0.03152,0.27749,0.10288,0,0,0,0,-0,0,0,0,-0,0,-0,0,-0,0,0,0,0,0,0,0,-0,0,-0,0,-0,0,-0,0,-0,0,0,0,0,0,0,0,0,0,0,0,0,0,0,0,0,0,0,0,0,0,0,0,0,0,0,0,0,0,0,0,0,0,0,0,0,0,0,0,0,0.97385,3.035,0.58598,0.46439,0.53303,class1
0.81781,0.57607,3.38557,275.51024,4.32093,0.17391,0.0931,72.47792,0.11855,1.7894,10.82654,1.94317,0,0,12.53688,0.96117,1.05576,0.08891,3.71608,0.34056,31.80147,2.88559,17.96218,5.57749,0.66061,0.03085,0.27691,0.10217,0,0,0,0,-0,0,0,0,-0,0,-0,0,-0,0,0,0,0,0,0,0,-0,0,-0,0,-0,0,-0,0,-0,0,0,0,0,0,0,0,0,0,0,0,0,0,0,0,0,0,0,0,0,0,0,0,0,0,0,0,0,0,0,0,0,0,0,0,0,0,0,0,0,0.88689,2.90965,0.58598,0.4367,0.47037,class1
0.82329,0.56765,3.39576,252.10982,4.29436,0.38552,0.31931,77.09446,0.10165,2.38855,10.79204,1.84685,0,0,12.51597,0.95328,1.05541,0.08872,3.71033,0.35359,31.74728,2.74505,17.82349,5.43761,0.66008,0.03041,0.27226,0.10279,0,0,0,0,-0,0,0,0,-0,0,-0,0,-0,0,0,0,0,0,0,0,-0,0,-0,0,-0,0,-0,0,-0,0,0,0,0,0,0,0,0,0,0,0,0,0,0,0,0,0,0,0,0,0,0,0,0,0,0,0,0,0,0,0,0,0,0,0,0,0,0,0,0,0.88689,2.90965,0.54424,0.42942,0.49019,class1
0.89225,0.45049,3.87595,206.44255,4.41174,0.09989,0.57398,57.70672,0.13182,5.08159,10.76632,1.94458,0,0,12.47821,0.95093,1.04834,0.08455,3.68107,0.32597,31.87604,3.06687,17.71181,5.31967,0.65891,0.03043,0.26971,0.10101,0,0,0,0,-0,0,0,0,-0,0,-0,0,-0,0,0,0,0,0,0,0,-0,0,-0,0,-0,0,-0,0,-0,0,0,0,0,0,0,0,0,0,0,0,0,0,0,0,0,0,0,0,0,0,0,0,0,0,0,0,0,0,0,0,0,0,0,0,0,0,0,0,0,0.78255,2.74806,0.51586,0.4576,0.56248,class1
0.86027,0.51195,4.10185,185.3077,4.07597,0.54638,0.16372,143.80587,0.21633,4.45099,10.67849,1.84603,0,0,12.4136,0.90947,1.04283,0.08931,3.64912,0.36099,31.79779,2.87627,17.29445,4.83084,0.65701,0.02888,0.2496,0.10972,0,0,0,0,-0,0,0,0,-0,0,-0,0,-0,0,0,0,0,0,0,0,-0,0,-0,0,-0,0,-0,0,-0,0,0,0,0,0,0,0,0,0,0,0,0,0,0,0,0,0,0,0,0,0,0,0,0,0,0,0,0,0,0,0,0,0,0,0,0,0,0,0,0,0.64343,2.50977,0.65609,0.3803,0.48635,class1
0.80899,0.58774,3.42023,282.85329,4.33265,0.10525,0.21486,71.12297,0.10025,2.8963,10.81222,1.8986,0,0,12.5315,0.9548,1.05843,0.08962,3.72711,0.3522,31.87919,3.07427,17.90583,5.5215,0.66044,0.03146,0.27689,0.10112,0,0,0,0,-0,0,0,0,-0,0,-0,0,-0,0,0,0,0,0,0,0,-0,0,-0,0,-0,0,-0,0,-0,0,0,0,0,0,0,0,0,0,0,0,0,0,0,0,0,0,0,0,0,0,0,0,0,0,0,0,0,0,0,0,0,0,0,0,0,0,0,0,0,0.79994,2.77592,0.56594,0.42966,0.46633,class1
0.88313,0.47135,4.3845,260.16642,4.50972,0.11594,0.24904,93.75958,0.16418,5.52265,11.09802,2.29844,0,0,12.72197,1.06275,1.06672,0.09281,3.77605,0.34665,32.00773,3.35921,18.65594,6.18351,0.66508,0.033,0.30021,0.10436,0,0,0,0,-0,0,0,0,-0,0,-0,0,-0,0,0,0,0,0,0,0,-0,0,-0,0,-0,0,-0,0,-0,0,0,0,0,0,0,0,0,0,0,0,0,0,0,0,0,0,0,0,0,0,0,0,0,0,0,0,0,0,0,0,0,0,0,0,0,0,0,0,0,1.25209,3.39029,0.52421,0.63768,0.56846,class1
0.88101,0.47292,4.35467,258.1045,4.21705,0.12929,0.6711,88.05937,0.16711,5.30308,11.1339,2.37782,0,0,12.73747,1.09959,1.06243,0.10014,3.77007,0.34471,32.21515,3.76465,18.7813,6.2786,0.66607,0.03584,0.30298,0.10877,0,0,0,0,-0,0,0,0,-0,0,-0,0,-0,0,0,0,0,0,0,0,-0,0,-0,0,-0,0,-0,0,-0,0,0,0,0,0,0,0,0,0,0,0,0,0,0,0,0,0,0,0,0,0,0,0,0,0,0,0,0,0,0,0,0,0,0,0,0,0,0,0,0,1.14775,3.26438,0.54424,0.66432,0.58489,class1
0.89813,0.44224,4.36523,302.84493,4.28317,0.25959,0.6643,88.10272,0.16484,4.77325,11.07382,2.17748,0,0,12.72534,1.11602,1.06035,0.09301,3.75208,0.3393,32.26732,3.85818,18.75522,6.25914,0.66588,0.03598,0.29914,0.10857,0,0,0,0,-0,0,0,0,-0,0,-0,0,-0,0,0,0,0,0,0,0,-0,0,-0,0,-0,0,-0,0,-0,0,0,0,0,0,0,0,0,0,0,0,0,0,0,0,0,0,0,0,0,0,0,0,0,0,0,0,0,0,0,0,0,0,0,0,0,0,0,0,0,1.25209,3.39029,0.53255,0.65685,0.57798,class1
0.90436,0.42608,4.33093,227.91407,4.24499,0.17823,0.32447,87.66691,0.12963,4.1228,11.06747,2.2193,0,0,12.71079,1.09934,1.05976,0.09333,3.74982,0.33429,32.08472,3.5166,18.52045,6.07614,0.66543,0.03533,0.29818,0.10789,0,0,0,0,-0,0,0,0,-0,0,-0,0,-0,0,0,0,0,0,0,0,-0,0,-0,0,-0,0,-0,0,-0,0,0,0,0,0,0,0,0,0,0,0,0,0,0,0,0,0,0,0,0,0,0,0,0,0,0,0,0,0,0,0,0,0,0,0,0,0,0,0,0,1.21731,3.3492,0.51419,0.6537,0.57551,class1
0.85565,0.51723,4.33854,236.26056,4.28293,0.32059,0.10514,102.06124,0.12457,2.9504,10.92466,2.07181,0,0,12.61288,1.04688,1.05931,0.09339,3.73787,0.36793,31.92821,3.31219,18.2596,5.85506,0.66237,0.03374,0.28538,0.10639,0,0,0,0,-0,0,0,0,-0,0,-0,0,-0,0,0,0,0,0,0,0,-0,0,-0,0,-0,0,-0,0,-0,0,0,0,0,0,0,0,0,0,0,0,0,0,0,0,0,0,0,0,0,0,0,0,0,0,0,0,0,0,0,0,0,0,0,0,0,0,0,0,0,1.00863,3.08303,0.58431,0.512,0.47007,class1
0.87304,0.48706,4.35759,233.18941,4.56787,0.46159,0.2365,106.95525,0.09081,4.98755,11.09933,2.1184,0,0,12.78966,1.08674,1.07712,0.09938,3.82483,0.36714,31.95548,3.247,18.62981,6.16318,0.6665,0.03463,0.30798,0.10549,0,0,0,0,-0,0,0,0,-0,0,-0,0,-0,0,0,0,0,0,0,0,-0,0,-0,0,-0,0,-0,0,-0,0,0,0,0,0,0,0,0,0,0,0,0,0,0,0,0,0,0,0,0,0,0,0,0,0,0,0,0,0,0,0,0,0,0,0,0,0,0,0,0,1.28687,3.43052,0.54257,0.6969,0.5818,class1
0.84653,0.53314,4.34924,274.31986,4.36242,0.20758,0.28885,90.19537,0.13544,2.28531,11.05748,2.25432,0,0,12.68377,1.04288,1.06512,0.09196,3.76622,0.34731,31.92821,3.18654,18.49437,6.0549,0.66462,0.03357,0.29482,0.10501,0,0,0,0,-0,0,0,0,-0,0,-0,0,-0,0,0,0,0,0,0,0,-0,0,-0,0,-0,0,-0,0,-0,0,0,0,0,0,0,0,0,0,0,0,0,0,0,0,0,0,0,0,0,0,0,0,0,0,0,0,0,0,0,0,0,0,0,0,0,0,0,0,0,1.16514,3.28593,0.56594,0.57355,0.53199,class1
0.86203,0.50745,4.3211,265.88394,4.44801,0.15865,0.21928,88.06834,0.11556,2.83989,11.00654,1.9133,0,0,12.72605,1.09077,1.0673,0.08879,3.77191,0.34719,32.05864,3.46426,18.57262,6.11806,0.66552,0.03438,0.29721,0.10688,0,0,0,0,-0,0,0,0,-0,0,-0,0,-0,0,0,0,0,0,0,0,-0,0,-0,0,-0,0,-0,0,-0,0,0,0,0,0,0,0,0,0,0,0,0,0,0,0,0,0,0,0,0,0,0,0,0,0,0,0,0,0,0,0,0,0,0,0,0,0,0,0,0,1.30426,3.45033,0.5626,0.60778,0.56717,class1
0.79236,0.60959,4.31121,255.7747,4.38024,0.30515,0.08646,93.68728,0.11892,1.81155,10.8997,2.09994,0,0,12.57886,0.95659,1.06835,0.09672,3.77378,0.38367,31.7219,2.96715,18.03691,5.64999,0.66129,0.03269,0.28345,0.10222,0,0,0,0,-0,0,0,0,-0,0,-0,0,-0,0,0,0,0,0,0,0,-0,0,-0,0,-0,0,-0,0,-0,0,0,0,0,0,0,0,0,0,0,0,0,0,0,0,0,0,0,0,0,0,0,0,0,0,0,0,0,0,0,0,0,0,0,0,0,0,0,0,0,0.90428,2.99653,0.59432,0.4514,0.45589,class1
0.86851,0.49663,0.83165,168.13598,3.96854,0.19302,0.16535,148.1763,0.19712,4.47698,10.70087,1.98736,0,0,12.40401,0.88579,1.04164,0.09183,3.64379,0.37007,31.74562,2.74061,17.34662,4.89657,0.65663,0.02742,0.24751,0.10965,0,0,0,0,-0,0,0,0,-0,0,-0,0,-0,0,0,0,0,0,0,0,-0,0,-0,0,-0,0,-0,0,-0,0,0,0,0,0,0,0,0,0,0,0,0,0,0,0,0,0,0,0,0,0,0,0,0,0,0,0,0,0,0,0,0,0,0,0,0,0,0,0,0,0.60865,2.44533,0.66277,0.38297,0.49513,class1
0.89196,0.45543,4.32805,226.94169,4.35678,0.18449,0.60184,88.02469,0.10049,4.57205,11.07207,2.09066,0,0,12.75824,1.11358,1.06774,0.09776,3.79105,0.34058,32.05864,3.46426,18.67696,6.19973,0.66664,0.03711,0.30547,0.10765,0,0,0,0,-0,0,0,0,-0,0,-0,0,-0,0,0,0,0,0,0,0,-0,0,-0,0,-0,0,-0,0,-0,0,0,0,0,0,0,0,0,0,0,0,0,0,0,0,0,0,0,0,0,0,0,0,0,0,0,0,0,0,0,0,0,0,0,0,0,0,0,0,0,1.19992,3.32834,0.54758,0.68732,0.55926,class1
0.88066,0.47487,4.33852,247.03497,4.31868,0.17956,0.2607,88.04997,0.12292,5.4207,11.09837,2.26696,0,0,12.74179,1.0777,1.0684,0.09729,3.79254,0.34285,32.00647,3.35654,18.62479,6.15925,0.66573,0.0348,0.30418,0.10595,0,0,0,0,-0,0,0,0,-0,0,-0,0,-0,0,0,0,0,0,0,0,-0,0,-0,0,-0,0,-0,0,-0,0,0,0,0,0,0,0,0,0,0,0,0,0,0,0,0,0,0,0,0,0,0,0,0,0,0,0,0,0,0,0,0,0,0,0,0,0,0,0,0,1.18253,3.30725,0.56594,0.66388,0.56234,class1
0.89462,0.44496,4.3067,309.29475,4.39155,0.34465,0.2792,87.48675,0.164,5.57509,11.05943,2.14602,0,0,12.71846,1.10525,1.06339,0.09225,3.76165,0.33978,32.08472,3.5166,18.59871,6.13874,0.66548,0.03556,0.29806,0.10818,0,0,0,0,-0,0,0,0,-0,0,-0,0,-0,0,0,0,0,0,0,0,-0,0,-0,0,-0,0,-0,0,-0,0,0,0,0,0,0,0,0,0,0,0,0,0,0,0,0,0,0,0,0,0,0,0,0,0,0,0,0,0,0,0,0,0,0,0,0,0,0,0,0,1.26948,3.41051,0.53422,0.64242,0.56721,class1
0.84267,0.5394,4.33031,268.21637,4.26412,0.166,0.32594,97.98708,0.17562,2.36046,11.04817,2.059,0,0,12.74537,1.07868,1.07231,0.09251,3.80187,0.34593,32.05864,3.46426,18.57262,6.11806,0.66572,0.03444,0.30428,0.10311,0,0,0,0,-0,0,0,0,-0,0,-0,0,-0,0,0,0,0,0,0,0,-0,0,-0,0,-0,0,-0,0,-0,0,0,0,0,0,0,0,0,0,0,0,0,0,0,0,0,0,0,0,0,0,0,0,0,0,0,0,0,0,0,0,0,0,0,0,0,0,0,0,0,1.19992,3.32834,0.57262,0.61768,0.54409,class1
0.90035,0.43382,4.32084,271.60289,4.27532,0.18228,0.36879,87.9573,0.18605,6.91761,11.07865,2.23474,0,0,12.72099,1.10171,1.06104,0.09568,3.75919,0.33412,32.13689,3.61843,18.62479,6.15925,0.66573,0.03575,0.30078,0.10747,0,0,0,0,-0,0,0,0,-0,0,-0,0,-0,0,0,0,0,0,0,0,-0,0,-0,0,-0,0,-0,0,-0,0,0,0,0,0,0,0,0,0,0,0,0,0,0,0,0,0,0,0,0,0,0,0,0,0,0,0,0,0,0,0,0,0,0,0,0,0,0,0,0,1.25209,3.39029,0.50417,0.65429,0.56498,class1
0.86292,0.50476,4.33037,261.78867,4.3128,0.42677,0.20033,90.64644,0.17733,3.52361,11.0403,2.1252,0,0,12.71166,1.07657,1.06851,0.09543,3.78622,0.34853,32.16298,3.668,18.49437,6.0549,0.66515,0.03535,0.30131,0.10304,0,0,0,0,-0,0,0,0,-0,0,-0,0,-0,0,0,0,0,0,0,0,-0,0,-0,0,-0,0,-0,0,-0,0,0,0,0,0,0,0,0,0,0,0,0,0,0,0,0,0,0,0,0,0,0,0,0,0,0,0,0,0,0,0,0,0,0,0,0,0,0,0,0,1.09558,3.19829,0.52922,0.61005,0.53068,class1
0.89801,0.44073,4.34315,274.83264,4.20563,0.17479,0.93862,88.02315,0.19219,6.74468,11.11386,2.30881,0,0,12.73282,1.09601,1.06423,0.09594,3.77275,0.33833,32.16298,3.668,18.7813,6.2786,0.66582,0.03548,0.30314,0.10566,0,0,0,0,-0,0,0,0,-0,0,-0,0,-0,0,0,0,0,0,0,0,-0,0,-0,0,-0,0,-0,0,-0,0,0,0,0,0,0,0,0,0,0,0,0,0,0,0,0,0,0,0,0,0,0,0,0,0,0,0,0,0,0,0,0,0,0,0,0,0,0,0,0,1.19992,3.32834,0.50918,0.66144,0.55857,class1
0.89742,0.44225,4.33502,280.31595,4.31813,0.12749,0.24525,87.99739,0.18436,5.34817,11.04185,2.05952,0,0,12.73495,1.08784,1.06732,0.0923,3.78052,0.33709,31.98038,3.30106,18.62479,6.15925,0.66566,0.03472,0.30247,0.10446,0,0,0,0,-0,0,0,0,-0,0,-0,0,-0,0,0,0,0,0,0,0,-0,0,-0,0,-0,0,-0,0,-0,0,0,0,0,0,0,0,0,0,0,0,0,0,0,0,0,0,0,0,0,0,0,0,0,0,0,0,0,0,0,0,0,0,0,0,0,0,0,0,0,1.21731,3.3492,0.4975,0.64995,0.5508,class1
0.89041,0.45483,4.3335,274.66621,4.18817,0.29914,0.2888,87.99614,0.19051,4.83262,11.10709,2.34756,0,0,12.71698,1.06822,1.0652,0.09406,3.77571,0.33499,32.11081,3.56797,18.72913,6.2395,0.66517,0.03419,0.30192,0.10441,0,0,0,0,-0,0,0,0,-0,0,-0,0,-0,0,0,0,0,0,0,0,-0,0,-0,0,-0,0,-0,0,-0,0,0,0,0,0,0,0,0,0,0,0,0,0,0,0,0,0,0,0,0,0,0,0,0,0,0,0,0,0,0,0,0,0,0,0,0,0,0,0,0,1.09558,3.19829,0.52421,0.6528,0.56226,class1
0.81543,0.58002,4.34912,210.71495,4.3486,0.49915,0.11002,87.78643,0.16871,1.92365,10.81406,1.97649,0,0,12.52804,0.94621,1.05915,0.09341,3.73628,0.35218,31.84996,3.00491,17.68573,5.29141,0.66006,0.03164,0.2777,0.10307,0,0,0,0,-0,0,0,0,-0,0,-0,0,-0,0,0,0,0,0,0,0,-0,0,-0,0,-0,0,-0,0,-0,0,0,0,0,0,0,0,0,0,0,0,0,0,0,0,0,0,0,0,0,0,0,0,0,0,0,0,0,0,0,0,0,0,0,0,0,0,0,0,0,0.76516,2.7198,0.6227,0.44401,0.45141,class1
0.83905,0.54471,3.36634,174.25001,4.07175,0.09861,0.55433,115.50126,0.22848,2.20684,10.64732,1.53538,0,0,12.43144,0.9008,1.05063,0.08259,3.67708,0.35188,31.71953,2.66981,17.39879,4.96087,0.65783,0.02927,0.25594,0.10342,0,0,0,0,-0,0,0,0,-0,0,-0,0,-0,0,0,0,0,0,0,0,-0,0,-0,0,-0,0,-0,0,-0,0,0,0,0,0,0,0,0,0,0,0,0,0,0,0,0,0,0,0,0,0,0,0,0,0,0,0,0,0,0,0,0,0,0,0,0,0,0,0,0,0.6956,2.60256,0.57262,0.37813,0.45191,class1
0.8805,0.47904,4.34791,250.52435,4.46314,0.19979,0.58595,87.98144,0.13478,4.16764,11.13212,2.32189,0,0,12.75791,1.08884,1.06923,0.10006,3.8007,0.34863,32.16298,3.668,18.67696,6.19973,0.6663,0.03593,0.30647,0.10703,0,0,0,0,-0,0,0,0,-0,0,-0,0,-0,0,0,0,0,0,0,0,-0,0,-0,0,-0,0,-0,0,-0,0,0,0,0,0,0,0,0,0,0,0,0,0,0,0,0,0,0,0,0,0,0,0,0,0,0,0,0,0,0,0,0,0,0,0,0,0,0,0,0,1.19992,3.32834,0.53756,0.68165,0.55957,class1
0.88851,0.4585,4.32066,274.10701,4.27165,0.13822,0.1439,87.99851,0.17653,2.62242,11.07179,2.30381,0,0,12.69549,1.07591,1.06229,0.09966,3.76618,0.34685,32.13689,3.61843,18.62479,6.15925,0.66491,0.03565,0.29881,0.10724,0,0,0,0,-0,0,0,0,-0,0,-0,0,-0,0,0,0,0,0,0,0,-0,0,-0,0,-0,0,-0,0,-0,0,0,0,0,0,0,0,0,0,0,0,0,0,0,0,0,0,0,0,0,0,0,0,0,0,0,0,0,0,0,0,0,0,0,0,0,0,0,0,0,1.04341,3.12993,0.51252,0.62599,0.55536,class1
0.88033,0.4684,4.35517,197.71082,4.32304,0.39369,0.31651,92.54672,0.12784,4.78587,11.0845,2.07574,0,0,12.77929,1.11708,1.07155,0.09791,3.80541,0.35281,32.16298,3.668,18.72913,6.2395,0.66683,0.03652,0.3079,0.10623,0,0,0,0,-0,0,0,0,-0,0,-0,0,-0,0,0,0,0,0,0,0,-0,0,-0,0,-0,0,-0,0,-0,0,0,0,0,0,0,0,0,0,0,0,0,0,0,0,0,0,0,0,0,0,0,0,0,0,0,0,0,0,0,0,0,0,0,0,0,0,0,0,0,1.21731,3.3492,0.53923,0.67633,0.55457,class1
0.83361,0.55259,4.36699,262.1027,4.34658,0.06756,0.25444,98.86192,0.15943,1.79345,11.01027,2.09014,0,0,12.69276,1.06015,1.06713,0.08845,3.77324,0.34226,32.05864,3.46426,18.57262,6.11806,0.6643,0.03326,0.29674,0.10334,0,0,0,0,-0,0,0,0,-0,0,-0,0,-0,0,0,0,0,0,0,0,-0,0,-0,0,-0,0,-0,0,-0,0,0,0,0,0,0,0,0,0,0,0,0,0,0,0,0,0,0,0,0,0,0,0,0,0,0,0,0,0,0,0,0,0,0,0,0,0,0,0,0,1.19992,3.32834,0.57095,0.55883,0.51547,class1
0.88672,0.46057,4.38298,233.45947,4.47913,0.22287,0.30037,93.98502,0.13149,3.62155,10.8907,2.13307,0,0,12.55591,1.01037,1.05116,0.08806,3.69919,0.33119,31.87604,3.06687,17.94658,5.56207,0.66104,0.03204,0.27836,0.10533,0,0,0,0,-0,0,0,0,-0,0,-0,0,-0,0,0,0,0,0,0,0,-0,0,-0,0,-0,0,-0,0,-0,0,0,0,0,0,0,0,0,0,0,0,0,0,0,0,0,0,0,0,0,0,0,0,0,0,0,0,0,0,0,0,0,0,0,0,0,0,0,0,0,0.93907,2.98579,0.54591,0.54608,0.62558,class1
0.87368,0.48919,4.37983,294.9065,4.24062,0.1005,0.23434,88.18278,0.17067,4.15702,11.06889,2.17717,0,0,12.72397,1.08714,1.06513,0.09476,3.77168,0.34813,32.13838,3.62127,18.73432,6.24343,0.66564,0.03522,0.29965,0.10685,0,0,0,0,-0,0,0,0,-0,0,-0,0,-0,0,0,0,0,0,0,0,-0,0,-0,0,-0,0,-0,0,-0,0,0,0,0,0,0,0,0,0,0,0,0,0,0,0,0,0,0,0,0,0,0,0,0,0,0,0,0,0,0,0,0,0,0,0,0,0,0,0,0,1.16514,3.28593,0.52087,0.61162,0.5525,class1
0.88849,0.46153,4.3876,236.40559,4.36837,0.17821,0.03047,88.13675,0.12238,5.18974,11.1282,2.30966,0,0,12.74824,1.10728,1.0652,0.10029,3.77989,0.35396,32.26732,3.85818,18.85956,6.33598,0.66628,0.03641,0.30273,0.10986,0,0,0,0,-0,0,0,0,-0,0,-0,0,-0,0,0,0,0,0,0,0,-0,0,-0,0,-0,0,-0,0,-0,0,0,0,0,0,0,0,0,0,0,0,0,0,0,0,0,0,0,0,0,0,0,0,0,0,0,0,0,0,0,0,0,0,0,0,0,0,0,0,0,1.21731,3.3492,0.52922,0.67672,0.5779,class1
0.87607,0.4846,4.38787,172.7604,4.61329,0.22568,0.16271,97.44459,0.10326,4.14391,11.16365,2.29209,0,0,12.79634,1.09801,1.07223,0.10054,3.81176,0.35578,32.08472,3.5166,18.93781,6.39188,0.66723,0.03571,0.30933,0.1078,0,0,0,0,-0,0,0,0,-0,0,-0,0,-0,0,0,0,0,0,0,0,-0,0,-0,0,-0,0,-0,0,-0,0,0,0,0,0,0,0,0,0,0,0,0,0,0,0,0,0,0,0,0,0,0,0,0,0,0,0,0,0,0,0,0,0,0,0,0,0,0,0,0,1.28687,3.43052,0.53589,0.71077,0.59233,class1
0.87348,0.4885,4.3939,239.0763,4.30935,0.30174,0.25604,88.25205,0.11876,3.67589,11.12613,2.37793,0,0,12.73698,1.05212,1.07159,0.10019,3.8039,0.36862,32.00647,3.35654,18.62479,6.15925,0.66535,0.03353,0.30417,0.10407,0,0,0,0,-0,0,0,0,-0,0,-0,0,-0,0,0,0,0,0,0,0,-0,0,-0,0,-0,0,-0,0,-0,0,0,0,0,0,0,0,0,0,0,0,0,0,0,0,0,0,0,0,0,0,0,0,0,0,0,0,0,0,0,0,0,0,0,0,0,0,0,0,0,1.13036,3.24259,0.52087,0.64731,0.55759,class1
0.8873,0.46214,4.37341,282.27766,4.43248,0.31003,0.07319,88.19321,0.106,5.65754,11.08116,2.21056,0,0,12.72973,1.09365,1.0648,0.09308,3.77091,0.33961,32.00647,3.35654,18.57262,6.11806,0.66563,0.03482,0.30054,0.10713,0,0,0,0,-0,0,0,0,-0,0,-0,0,-0,0,0,0,0,0,0,0,-0,0,-0,0,-0,0,-0,0,-0,0,0,0,0,0,0,0,0,0,0,0,0,0,0,0,0,0,0,0,0,0,0,0,0,0,0,0,0,0,0,0,0,0,0,0,0,0,0,0,0,1.21731,3.3492,0.5576,0.65907,0.57786,class1
0.79788,0.60352,3.41548,179.89634,4.18432,0.53702,0.20891,122.06473,0.19583,2.36349,10.72168,1.81775,0,0,12.42022,0.83311,1.05739,0.08148,3.70652,0.35212,31.90213,3.12739,17.50313,5.08543,0.65829,0.02929,0.25992,0.09648,0,0,0,0,-0,0,0,0,-0,0,-0,0,-0,0,0,0,0,0,0,0,-0,0,-0,0,-0,0,-0,0,-0,0,0,0,0,0,0,0,0,0,0,0,0,0,0,0,0,0,0,0,0,0,0,0,0,0,0,0,0,0,0,0,0,0,0,0,0,0,0,0,0,0.67821,2.57212,0.63773,0.39263,0.45957,class1
0.90461,0.42572,4.38198,243.39438,4.32931,0.35563,0.24626,88.16962,0.1256,3.83909,11.07493,2.22961,0,0,12.71413,1.09588,1.06048,0.09072,3.74926,0.33478,32.03255,3.41093,18.57262,6.11806,0.66531,0.03458,0.29659,0.10893,0,0,0,0,-0,0,0,0,-0,0,-0,0,-0,0,0,0,0,0,0,0,-0,0,-0,0,-0,0,-0,0,-0,0,0,0,0,0,0,0,0,0,0,0,0,0,0,0,0,0,0,0,0,0,0,0,0,0,0,0,0,0,0,0,0,0,0,0,0,0,0,0,0,1.25209,3.39029,0.50584,0.64143,0.56683,class1
0.88087,0.46896,4.35985,197.09999,4.53187,0.41443,0.24456,92.44518,0.10567,3.48917,11.12622,2.3125,0,0,12.7481,1.07019,1.07174,0.09846,3.80319,0.36034,32.03255,3.41093,18.59871,6.13874,0.66584,0.03466,0.30286,0.10745,0,0,0,0,-0,0,0,0,-0,0,-0,0,-0,0,0,0,0,0,0,0,-0,0,-0,0,-0,0,-0,0,-0,0,0,0,0,0,0,0,0,0,0,0,0,0,0,0,0,0,0,0,0,0,0,0,0,0,0,0,0,0,0,0,0,0,0,0,0,0,0,0,0,1.16514,3.28593,0.50584,0.66885,0.568,class1
0.84245,0.53896,4.36322,241.34071,4.62037,0.21663,0.03933,106.89508,0.10233,2.30517,11.13717,2.28629,0,0,12.77557,1.04293,1.08297,0.09613,3.85457,0.35279,32.06135,3.46975,18.73953,6.24737,0.66604,0.03412,0.31117,0.09986,0,0,0,0,-0,0,0,0,-0,0,-0,0,-0,0,0,0,0,0,0,0,-0,0,-0,0,-0,0,-0,0,-0,0,0,0,0,0,0,0,0,0,0,0,0,0,0,0,0,0,0,0,0,0,0,0,0,0,0,0,0,0,0,0,0,0,0,0,0,0,0,0,0,1.18253,3.30725,0.58264,0.68076,0.5583,class1
0.80421,0.59724,4.35951,192.30966,4.50742,0.15094,0.2669,118.41481,0.11164,1.61168,11.06587,2.08335,0,0,12.75279,1.05833,1.07681,0.09675,3.82148,0.36968,32.05999,3.46701,18.60368,6.14267,0.66594,0.0344,0.30418,0.10382,0,0,0,0,-0,0,0,0,-0,0,-0,0,-0,0,0,0,0,0,0,0,-0,0,-0,0,-0,0,-0,0,-0,0,0,0,0,0,0,0,0,0,0,0,0,0,0,0,0,0,0,0,0,0,0,0,0,0,0,0,0,0,0,0,0,0,0,0,0,0,0,0,0,1.26948,3.41051,0.58765,0.58771,0.53911,class1
0.8847,0.46845,4.355,253.08974,4.31683,0.26623,0.87071,88.08314,0.144,5.82051,11.11854,2.34674,0,0,12.736,1.08119,1.06506,0.09747,3.77621,0.34723,32.00647,3.35654,18.65088,6.17957,0.66564,0.03434,0.30124,0.10854,0,0,0,0,-0,0,0,0,-0,0,-0,0,-0,0,0,0,0,0,0,0,-0,0,-0,0,-0,0,-0,0,-0,0,0,0,0,0,0,0,0,0,0,0,0,0,0,0,0,0,0,0,0,0,0,0,0,0,0,0,0,0,0,0,0,0,0,0,0,0,0,0,0,1.18253,3.30725,0.54591,0.65308,0.56876,class1
0.88918,0.4573,4.34547,252.7035,4.36139,0.20667,0.27549,107.81177,0.12904,5.45578,11.05384,2.04057,0,0,12.75557,1.07754,1.07386,0.0939,3.81075,0.34758,31.98038,3.30106,18.54654,6.09719,0.66601,0.03477,0.30588,0.10298,0,0,0,0,-0,0,0,0,-0,0,-0,0,-0,0,0,0,0,0,0,0,-0,0,-0,0,-0,0,-0,0,-0,0,0,0,0,0,0,0,0,0,0,0,0,0,0,0,0,0,0,0,0,0,0,0,0,0,0,0,0,0,0,0,0,0,0,0,0,0,0,0,0,1.2347,3.36985,0.50918,0.64997,0.51935,class1
0.88531,0.4648,4.33886,201.18384,4.31523,0.18421,0.11987,94.04647,0.12147,5.03817,11.08154,2.12424,0,0,12.76665,1.0953,1.07213,0.09581,3.8047,0.35382,32.05864,3.46426,18.54654,6.09719,0.66618,0.03487,0.30547,0.10621,0,0,0,0,-0,0,0,0,-0,0,-0,0,-0,0,0,0,0,0,0,0,-0,0,-0,0,-0,0,-0,0,-0,0,0,0,0,0,0,0,0,0,0,0,0,0,0,0,0,0,0,0,0,0,0,0,0,0,0,0,0,0,0,0,0,0,0,0,0,0,0,0,0,1.30426,3.45033,0.51252,0.65008,0.54956,class1
0.87317,0.4866,4.29729,210.7275,4.28718,0.12767,0.713,90.06534,0.15909,3.26745,11.12188,2.18827,0,0,12.77454,1.08398,1.07449,0.10027,3.81596,0.36254,32.05864,3.46426,18.75522,6.25914,0.66689,0.03546,0.30715,0.10551,0,0,0,0,-0,0,0,0,-0,0,-0,0,-0,0,0,0,0,0,0,0,-0,0,-0,0,-0,0,-0,0,-0,0,0,0,0,0,0,0,0,0,0,0,0,0,0,0,0,0,0,0,0,0,0,0,0,0,0,0,0,0,0,0,0,0,0,0,0,0,0,0,0,1.19992,3.32834,0.50751,0.65683,0.54922,class1
0.8879,0.45929,4.36215,294.88823,4.34855,0.49399,0.24192,88.09951,0.184,6.48707,11.07781,2.21115,0,0,12.73249,1.07793,1.06742,0.09599,3.78652,0.33753,32.00647,3.35654,18.52045,6.07614,0.66561,0.03484,0.30385,0.10463,0,0,0,0,-0,0,0,0,-0,0,-0,0,-0,0,0,0,0,0,0,0,-0,0,-0,0,-0,0,-0,0,-0,0,0,0,0,0,0,0,0,0,0,0,0,0,0,0,0,0,0,0,0,0,0,0,0,0,0,0,0,0,0,0,0,0,0,0,0,0,0,0,0,1.18253,3.30725,0.52254,0.64992,0.54674,class1
0.89871,0.43865,4.34628,280.01041,4.23422,0.18156,0.83536,88.03957,0.18493,6.79872,11.12888,2.34791,0,0,12.74343,1.09084,1.06568,0.09548,3.78089,0.33637,32.13689,3.61843,18.75522,6.25914,0.6659,0.03505,0.3046,0.10558,0,0,0,0,-0,0,0,0,-0,0,-0,0,-0,0,0,0,0,0,0,0,-0,0,-0,0,-0,0,-0,0,-0,0,0,0,0,0,0,0,0,0,0,0,0,0,0,0,0,0,0,0,0,0,0,0,0,0,0,0,0,0,0,0,0,0,0,0,0,0,0,0,0,1.18253,3.30725,0.49249,0.66331,0.54796,class1
0.85478,0.51669,0.84318,159.40904,4.1669,0.35701,0.13038,106.73168,0.2096,4.50998,10.69358,1.87611,0,0,12.42343,0.90156,1.04511,0.08623,3.65659,0.35974,31.7717,2.80938,17.3727,4.92889,0.65701,0.02736,0.25204,0.10727,0,0,0,0,-0,0,0,0,-0,0,-0,0,-0,0,0,0,0,0,0,0,-0,0,-0,0,-0,0,-0,0,-0,0,0,0,0,0,0,0,0,0,0,0,0,0,0,0,0,0,0,0,0,0,0,0,0,0,0,0,0,0,0,0,0,0,0,0,0,0,0,0,0,0.6956,2.60256,0.6778,0.38982,0.48571,class1
0.89311,0.4523,4.37685,301.32086,4.28215,0.11322,0.21871,88.1453,0.17909,5.45565,11.05222,2.00567,0,0,12.75697,1.11885,1.06717,0.09199,3.78159,0.33712,32.11081,3.56797,18.70305,6.2197,0.66645,0.03599,0.30476,0.10515,0,0,0,0,-0,0,0,0,-0,0,-0,0,-0,0,0,0,0,0,0,0,-0,0,-0,0,-0,0,-0,0,-0,0,0,0,0,0,0,0,0,0,0,0,0,0,0,0,0,0,0,0,0,0,0,0,0,0,0,0,0,0,0,0,0,0,0,0,0,0,0,0,0,1.26948,3.41051,0.51085,0.65967,0.55449,class1
0.88854,0.45653,4.31848,259.85322,4.3509,0.17055,0.28596,87.99014,0.14745,4.97734,11.06449,2.10328,0,0,12.7472,1.09978,1.06794,0.09409,3.78492,0.34416,32.05864,3.46426,18.49437,6.0549,0.66596,0.03525,0.30259,0.10703,0,0,0,0,-0,0,0,0,-0,0,-0,0,-0,0,0,0,0,0,0,0,-0,0,-0,0,-0,0,-0,0,-0,0,0,0,0,0,0,0,0,0,0,0,0,0,0,0,0,0,0,0,0,0,0,0,0,0,0,0,0,0,0,0,0,0,0,0,0,0,0,0,0,1.25209,3.39029,0.51586,0.6457,0.54662,class1
0.88443,0.46725,4.35242,204.09352,4.38699,0.39335,0.42447,92.71158,0.09714,4.99169,11.07364,2.14961,0,0,12.74868,1.0868,1.06883,0.09473,3.78941,0.34687,31.9543,3.24441,18.62479,6.15925,0.66586,0.03446,0.30151,0.10889,0,0,0,0,-0,0,0,0,-0,0,-0,0,-0,0,0,0,0,0,0,0,-0,0,-0,0,-0,0,-0,0,-0,0,0,0,0,0,0,0,0,0,0,0,0,0,0,0,0,0,0,0,0,0,0,0,0,0,0,0,0,0,0,0,0,0,0,0,0,0,0,0,0,1.21731,3.3492,0.53756,0.67423,0.58507,class1
0.87864,0.47731,4.35328,249.17317,4.42175,0.06392,0.28923,90.38593,0.10916,2.2417,11.05799,2.22858,0,0,12.70858,1.06559,1.06739,0.09748,3.78363,0.35826,32.08472,3.5166,18.62479,6.15925,0.66475,0.03455,0.29857,0.10718,0,0,0,0,-0,0,0,0,-0,0,-0,0,-0,0,0,0,0,0,0,0,-0,0,-0,0,-0,0,-0,0,-0,0,0,0,0,0,0,0,0,0,0,0,0,0,0,0,0,0,0,0,0,0,0,0,0,0,0,0,0,0,0,0,0,0,0,0,0,0,0,0,0,1.09558,3.19829,0.51419,0.64375,0.55386,class1
0.89607,0.44148,4.40081,204.33747,4.36222,0.20552,0.77434,87.17691,0.1734,4.18531,11.05874,2.19898,0,0,12.71126,1.07104,1.06675,0.0935,3.77677,0.34366,32.00647,3.35654,18.52045,6.07614,0.6649,0.03402,0.29938,0.10516,0,0,0,0,-0,0,0,0,-0,0,-0,0,-0,0,0,0,0,0,0,0,-0,0,-0,0,-0,0,-0,0,-0,0,0,0,0,0,0,0,0,0,0,0,0,0,0,0,0,0,0,0,0,0,0,0,0,0,0,0,0,0,0,0,0,0,0,0,0,0,0,0,0,1.14775,3.26438,0.49917,0.63654,0.54423,class1
0.84307,0.53915,4.34661,210.02754,4.35762,0.22933,0.2133,86.21876,0.15486,2.11758,10.91335,2.06042,0,0,12.60222,1.03952,1.0544,0.09348,3.71926,0.34253,31.92935,3.18909,18.05497,5.66721,0.66243,0.03361,0.28257,0.10972,0,0,0,0,-0,0,0,0,-0,0,-0,0,-0,0,0,0,0,0,0,0,-0,0,-0,0,-0,0,-0,0,-0,0,0,0,0,0,0,0,0,0,0,0,0,0,0,0,0,0,0,0,0,0,0,0,0,0,0,0,0,0,0,0,0,0,0,0,0,0,0,0,0,0.92168,2.96073,0.6177,0.48604,0.52486,class1
0.88681,0.46144,4.34901,252.23814,4.3118,0.20813,0.37554,88.07037,0.17327,5.71848,10.96789,2.16532,0,0,12.64155,1.03327,1.06264,0.09283,3.75919,0.33506,31.90213,3.12739,18.10309,5.71259,0.66294,0.03312,0.29298,0.10322,0,0,0,0,-0,0,0,0,-0,0,-0,0,-0,0,0,0,0,0,0,0,-0,0,-0,0,-0,0,-0,0,-0,0,0,0,0,0,0,0,0,0,0,0,0,0,0,0,0,0,0,0,0,0,0,0,0,0,0,0,0,0,0,0,0,0,0,0,0,0,0,0,0,1.00863,3.08303,0.52588,0.58598,0.51777,class1
0.89376,0.44886,4.33148,271.91565,4.14278,0.38524,0.31962,88.02344,0.18958,5.74803,11.1188,2.34646,0,0,12.73554,1.07356,1.06798,0.09874,3.79148,0.34747,32.18907,3.71673,18.67696,6.19973,0.66555,0.0349,0.30437,0.10509,0,0,0,0,-0,0,0,0,-0,0,-0,0,-0,0,0,0,0,0,0,0,-0,0,-0,0,-0,0,-0,0,-0,0,0,0,0,0,0,0,0,0,0,0,0,0,0,0,0,0,0,0,0,0,0,0,0,0,0,0,0,0,0,0,0,0,0,0,0,0,0,0,0,1.11297,3.22056,0.4975,0.65747,0.53216,class1
0.89302,0.45085,4.3707,236.72144,4.19926,0.12777,0.79247,88.11438,0.18251,6.64399,11.09082,2.22133,0,0,12.73706,1.07421,1.07067,0.0905,3.79388,0.3345,32.00647,3.35654,18.65088,6.17957,0.66542,0.03395,0.30397,0.10249,0,0,0,0,-0,0,0,0,-0,0,-0,0,-0,0,0,0,0,0,0,0,-0,0,-0,0,-0,0,-0,0,-0,0,0,0,0,0,0,0,0,0,0,0,0,0,0,0,0,0,0,0,0,0,0,0,0,0,0,0,0,0,0,0,0,0,0,0,0,0,0,0,0,1.21731,3.3492,0.51085,0.66667,0.55761,class1
0.89715,0.44331,4.33909,278.92256,4.29765,0.26393,0.74364,87.99234,0.18251,6.16438,11.07924,2.18117,0,0,12.74203,1.09549,1.06676,0.09563,3.78231,0.34507,32.11081,3.56797,18.62479,6.15925,0.66587,0.03527,0.30337,0.10571,0,0,0,0,-0,0,0,0,-0,0,-0,0,-0,0,0,0,0,0,0,0,-0,0,-0,0,-0,0,-0,0,-0,0,0,0,0,0,0,0,0,0,0,0,0,0,0,0,0,0,0,0,0,0,0,0,0,0,0,0,0,0,0,0,0,0,0,0,0,0,0,0,0,1.21731,3.3492,0.50417,0.65536,0.54437,class1
0.86162,0.507,3.43568,165.84012,4.02134,0.70821,0.14191,147.63423,0.21536,4.30661,10.66573,1.69561,0,0,12.4349,0.92723,1.04537,0.08787,3.65833,0.36227,31.74562,2.74061,17.34662,4.89657,0.65754,0.02898,0.25248,0.10909,0,0,0,0,-0,0,0,0,-0,0,-0,0,-0,0,0,0,0,0,0,0,-0,0,-0,0,-0,0,-0,0,-0,0,0,0,0,0,0,0,0,0,0,0,0,0,0,0,0,0,0,0,0,0,0,0,0,0,0,0,0,0,0,0,0,0,0,0,0,0,0,0,0,0.73038,2.66205,0.65109,0.38828,0.49031,class1
0.88529,0.46534,4.33891,270.53164,4.26724,0.28813,0.30273,88.03203,0.18419,5.89101,11.10519,2.27754,0,0,12.74236,1.07204,1.06974,0.09484,3.79478,0.34319,32.05864,3.46426,18.65088,6.17957,0.66555,0.03395,0.30412,0.10486,0,0,0,0,-0,0,0,0,-0,0,-0,0,-0,0,0,0,0,0,0,0,-0,0,-0,0,-0,0,-0,0,-0,0,0,0,0,0,0,0,0,0,0,0,0,0,0,0,0,0,0,0,0,0,0,0,0,0,0,0,0,0,0,0,0,0,0,0,0,0,0,0,0,1.19992,3.32834,0.51753,0.65402,0.55464,class1
0.89651,0.44267,4.34081,241.97101,4.28925,0.50909,0.40831,87.84918,0.18876,6.05408,11.07189,2.17356,0,0,12.73777,1.07516,1.06979,0.09168,3.79264,0.33275,32.03255,3.41093,18.54654,6.09719,0.66551,0.03394,0.30387,0.10376,0,0,0,0,-0,0,0,0,-0,0,-0,0,-0,0,0,0,0,0,0,0,-0,0,-0,0,-0,0,-0,0,-0,0,0,0,0,0,0,0,0,0,0,0,0,0,0,0,0,0,0,0,0,0,0,0,0,0,0,0,0,0,0,0,0,0,0,0,0,0,0,0,0,1.21731,3.3492,0.49249,0.65038,0.53639,class1
0.88966,0.4579,4.31444,309.4014,4.24611,0.07225,0.25701,87.38237,0.17545,6.08614,11.0713,2.16248,0,0,12.73976,1.08389,1.06873,0.09129,3.7864,0.33944,32.03255,3.41093,18.54654,6.09719,0.66553,0.03407,0.30248,0.10493,0,0,0,0,-0,0,0,0,-0,0,-0,0,-0,0,0,0,0,0,0,0,-0,0,-0,0,-0,0,-0,0,-0,0,0,0,0,0,0,0,0,0,0,0,0,0,0,0,0,0,0,0,0,0,0,0,0,0,0,0,0,0,0,0,0,0,0,0,0,0,0,0,0,1.26948,3.41051,0.5025,0.64504,0.55865,class1
0.89654,0.44327,4.28231,263.43093,4.16904,0.39235,0.36208,86.70108,0.19295,6.53209,11.12268,2.35278,0,0,12.73205,1.09211,1.06416,0.09903,3.77602,0.34067,32.08472,3.5166,18.67696,6.19973,0.66581,0.03578,0.30338,0.10688,0,0,0,0,-0,0,0,0,-0,0,-0,0,-0,0,0,0,0,0,0,0,-0,0,-0,0,-0,0,-0,0,-0,0,0,0,0,0,0,0,0,0,0,0,0,0,0,0,0,0,0,0,0,0,0,0,0,0,0,0,0,0,0,0,0,0,0,0,0,0,0,0,0,1.13036,3.24259,0.49583,0.64771,0.55451,class1
0.89214,0.45156,4.3073,295.89849,4.45038,0.09802,0.34773,87.24275,0.18381,5.79259,11.09037,2.3188,0,0,12.71746,1.05136,1.06787,0.09684,3.78793,0.34311,32.00647,3.35654,18.62479,6.15925,0.66499,0.03351,0.30174,0.10517,0,0,0,0,-0,0,0,0,-0,0,-0,0,-0,0,0,0,0,0,0,0,-0,0,-0,0,-0,0,-0,0,-0,0,0,0,0,0,0,0,0,0,0,0,0,0,0,0,0,0,0,0,0,0,0,0,0,0,0,0,0,0,0,0,0,0,0,0,0,0,0,0,0,1.09558,3.19829,0.49583,0.65042,0.54539,class1
0.89165,0.4511,4.30365,246.43175,4.337,0.41788,0.32796,87.52563,0.18762,6.30697,11.04982,2.15919,0,0,12.72798,1.06356,1.0704,0.09562,3.7954,0.34898,31.9543,3.24441,18.4422,6.01186,0.66504,0.0335,0.30274,0.10375,0,0,0,0,-0,0,0,0,-0,0,-0,0,-0,0,0,0,0,0,0,0,-0,0,-0,0,-0,0,-0,0,-0,0,0,0,0,0,0,0,0,0,0,0,0,0,0,0,0,0,0,0,0,0,0,0,0,0,0,0,0,0,0,0,0,0,0,0,0,0,0,0,0,1.14775,3.26438,0.49917,0.64186,0.54111,class1
0.8854,0.46598,4.31595,288.90213,4.21256,0.08624,0.52721,87.92385,0.17073,6.17391,11.07382,2.12955,0,0,12.75042,1.08638,1.07074,0.0934,3.79687,0.3412,32.03255,3.41093,18.54654,6.09719,0.66586,0.03453,0.30467,0.10436,0,0,0,0,-0,0,0,0,-0,0,-0,0,-0,0,0,0,0,0,0,0,-0,0,-0,0,-0,0,-0,0,-0,0,0,0,0,0,0,0,0,0,0,0,0,0,0,0,0,0,0,0,0,0,0,0,0,0,0,0,0,0,0,0,0,0,0,0,0,0,0,0,0,1.26948,3.41051,0.52922,0.64782,0.53606,class1
